   t [s]	   x3 [m]
   0               1.5e-01
   1.2004802e-04   1.4999996e-01
   1.5570670e-04   1.4999994e-01
   1.9850322e-04   1.4999989e-01
   2.4986786e-04   1.4999981e-01
   3.1151813e-04   1.4999967e-01
   3.8547101e-04   1.4999946e-01
   4.7417495e-04   1.4999914e-01
   5.8061968e-04   1.4999866e-01
   7.0840809e-04   1.4999793e-01
   8.6163586e-04   1.4999684e-01
   1.0455660e-03   1.4999524e-01
   1.2664465e-03   1.4999287e-01
   1.5311477e-03   1.4998941e-01
   1.8487891e-03   1.4998435e-01
   2.2292202e-03   1.4997699e-01
   2.6716219e-03   1.4996666e-01
   3.1707418e-03   1.4995271e-01
   3.7116874e-03   1.4993484e-01
   4.2080189e-03   1.4991592e-01
   4.6752968e-03   1.4989592e-01
   5.1186675e-03   1.4987497e-01
   5.5384965e-03   1.4985335e-01
   5.8963052e-03   1.4983358e-01
   6.2142231e-03   1.4981496e-01
   6.5063906e-03   1.4979697e-01
   6.7813718e-03   1.4977929e-01
   7.0469519e-03   1.4976151e-01
   7.3073246e-03   1.4974340e-01
   7.5655215e-03   1.4972480e-01
   7.8237184e-03   1.4970554e-01
   8.0797636e-03   1.4968581e-01
   8.3302274e-03   1.4966588e-01
   8.5746802e-03   1.4964584e-01
   8.7982140e-03   1.4962701e-01
   9.0069137e-03   1.4960898e-01
   9.2034430e-03   1.4959162e-01
   9.3918176e-03   1.4957463e-01
   9.5744954e-03   1.4955781e-01
   9.7535558e-03   1.4954102e-01
   9.9298184e-03   1.4952418e-01
   1.0106774e-02   1.4950698e-01
   1.0286560e-02   1.4948918e-01
   1.0469276e-02   1.4947077e-01
   1.0654640e-02   1.4945176e-01
   1.0839237e-02   1.4943250e-01
   1.1021944e-02   1.4941311e-01
   1.1203532e-02   1.4939352e-01
   1.1384749e-02   1.4937364e-01
   1.1566338e-02   1.4935340e-01
   1.1748675e-02   1.4933276e-01
   1.1928780e-02   1.4931205e-01
   1.2107423e-02   1.4929120e-01
   1.2284984e-02   1.4927017e-01
   1.2461119e-02   1.4924900e-01
   1.2632764e-02   1.4922808e-01
   1.2800455e-02   1.4920737e-01
   1.2963750e-02   1.4918694e-01
   1.3121998e-02   1.4916689e-01
   1.3275492e-02   1.4914721e-01
   1.3424760e-02   1.4912785e-01
   1.3570510e-02   1.4910874e-01
   1.3713133e-02   1.4908984e-01
   1.3853665e-02   1.4907103e-01
   1.3993060e-02   1.4905217e-01
   1.4131558e-02   1.4903325e-01
   1.4269388e-02   1.4901424e-01
   1.4406998e-02   1.4899507e-01
   1.4544607e-02   1.4897572e-01
   1.4683108e-02   1.4895606e-01
   1.4822972e-02   1.4893601e-01
   1.4962607e-02   1.4891581e-01
   1.5100208e-02   1.4889572e-01
   1.5236703e-02   1.4887561e-01
   1.5372759e-02   1.4885538e-01
   1.5508816e-02   1.4883497e-01
   1.5645092e-02   1.4881436e-01
   1.5781589e-02   1.4879352e-01
   1.5918307e-02   1.4877247e-01
   1.6055248e-02   1.4875121e-01
   1.6190642e-02   1.4873001e-01
   1.6324737e-02   1.4870884e-01
   1.6457555e-02   1.4868769e-01
   1.6589118e-02   1.4866658e-01
   1.6719448e-02   1.4864550e-01
   1.6848365e-02   1.4862449e-01
   1.6975703e-02   1.4860358e-01
   1.7101497e-02   1.4858277e-01
   1.7225969e-02   1.4856202e-01
   1.7348780e-02   1.4854141e-01
   1.7469792e-02   1.4852095e-01
   1.7589227e-02   1.4850063e-01
   1.7707294e-02   1.4848040e-01
   1.7824688e-02   1.4846015e-01
   1.7941747e-02   1.4843982e-01
   1.8058973e-02   1.4841934e-01
   1.8176873e-02   1.4839860e-01
   1.8295630e-02   1.4837758e-01
   1.8415431e-02   1.4835623e-01
   1.8536476e-02   1.4833453e-01
   1.8658794e-02   1.4831245e-01
   1.8782413e-02   1.4828998e-01
   1.8907555e-02   1.4826710e-01
   1.9030984e-02   1.4824437e-01
   1.9152925e-02   1.4822178e-01
   1.9273773e-02   1.4819925e-01
   1.9393545e-02   1.4817677e-01
   1.9512258e-02   1.4815437e-01
   1.9628907e-02   1.4813221e-01
   1.9743887e-02   1.4811025e-01
   1.9857564e-02   1.4808841e-01
   1.9970282e-02   1.4806663e-01
   2.0082056e-02   1.4804492e-01
   2.0193207e-02   1.4802321e-01
   2.0303743e-02   1.4800149e-01
   2.0413820e-02   1.4797976e-01
   2.0523595e-02   1.4795796e-01
   2.0633217e-02   1.4793608e-01
   2.0742689e-02   1.4791412e-01
   2.0852009e-02   1.4789207e-01
   2.0961028e-02   1.4786996e-01
   2.1067550e-02   1.4784826e-01
   2.1171958e-02   1.4782687e-01
   2.1274332e-02   1.4780581e-01
   2.1375004e-02   1.4778499e-01
   2.1474028e-02   1.4776442e-01
   2.1571576e-02   1.4774407e-01
   2.1667807e-02   1.4772390e-01
   2.1762640e-02   1.4770394e-01
   2.1856226e-02   1.4768415e-01
   2.1948594e-02   1.4766454e-01
   2.2039669e-02   1.4764513e-01
   2.2129382e-02   1.4762593e-01
   2.2217671e-02   1.4760696e-01
   2.2304675e-02   1.4758819e-01
   2.2390149e-02   1.4756968e-01
   2.2474233e-02   1.4755140e-01
   2.2556893e-02   1.4753337e-01
   2.2638327e-02   1.4751554e-01
   2.2718566e-02   1.4749791e-01
   2.2797643e-02   1.4748048e-01
   2.2875587e-02   1.4746323e-01
   2.2952426e-02   1.4744618e-01
   2.3028190e-02   1.4742931e-01
   2.3102904e-02   1.4741262e-01
   2.3176797e-02   1.4739606e-01
   2.3249885e-02   1.4737963e-01
   2.3322182e-02   1.4736332e-01
   2.3393897e-02   1.4734710e-01
   2.3465036e-02   1.4733096e-01
   2.3535608e-02   1.4731490e-01
   2.3605992e-02   1.4729884e-01
   2.3676564e-02   1.4728269e-01
   2.3747709e-02   1.4726636e-01
   2.3819633e-02   1.4724979e-01
   2.3892559e-02   1.4723295e-01
   2.3966517e-02   1.4721582e-01
   2.4041759e-02   1.4719834e-01
   2.4118332e-02   1.4718049e-01
   2.4196288e-02   1.4716227e-01
   2.4275684e-02   1.4714365e-01
   2.4356073e-02   1.4712473e-01
   2.4436969e-02   1.4710563e-01
   2.4518380e-02   1.4708635e-01
   2.4599790e-02   1.4706701e-01
   2.4681463e-02   1.4704754e-01
   2.4763136e-02   1.4702800e-01
   2.4845074e-02   1.4700834e-01
   2.4927012e-02   1.4698862e-01
   2.5009218e-02   1.4696876e-01
   2.5091425e-02   1.4694885e-01
   2.5174177e-02   1.4692873e-01
   2.5257485e-02   1.4690842e-01
   2.5341358e-02   1.4688790e-01
   2.5425806e-02   1.4686717e-01
   2.5510838e-02   1.4684623e-01
   2.5594418e-02   1.4682558e-01
   2.5676316e-02   1.4680529e-01
   2.5756858e-02   1.4678527e-01
   2.5835826e-02   1.4676557e-01
   2.5913775e-02   1.4674608e-01
   2.5990483e-02   1.4672684e-01
   2.6066223e-02   1.4670779e-01
   2.6141016e-02   1.4668892e-01
   2.6215112e-02   1.4667018e-01
   2.6288522e-02   1.4665156e-01
   2.6361932e-02   1.4663288e-01
   2.6435342e-02   1.4661416e-01
   2.6509213e-02   1.4659527e-01
   2.6583551e-02   1.4657621e-01
   2.6658364e-02   1.4655697e-01
   2.6733659e-02   1.4653755e-01
   2.6809693e-02   1.4651789e-01
   2.6884501e-02   1.4649850e-01
   2.6957651e-02   1.4647948e-01
   2.7029434e-02   1.4646077e-01
   2.7099680e-02   1.4644241e-01
   2.7168657e-02   1.4642434e-01
   2.7236205e-02   1.4640660e-01
   2.7302572e-02   1.4638913e-01
   2.7367983e-02   1.4637187e-01
   2.7432461e-02   1.4635482e-01
   2.7496392e-02   1.4633787e-01
   2.7559604e-02   1.4632108e-01
   2.7622463e-02   1.4630434e-01
   2.7684970e-02   1.4628766e-01
   2.7747129e-02   1.4627103e-01
   2.7809114e-02   1.4625442e-01
   2.7870927e-02   1.4623782e-01
   2.7932740e-02   1.4622118e-01
   2.7994553e-02   1.4620450e-01
   2.8056367e-02   1.4618779e-01
   2.8118180e-02   1.4617104e-01
   2.8180168e-02   1.4615421e-01
   2.8242156e-02   1.4613734e-01
   2.8304321e-02   1.4612039e-01
   2.8366845e-02   1.4610330e-01
   2.8429550e-02   1.4608613e-01
   2.8492621e-02   1.4606882e-01
   2.8556065e-02   1.4605137e-01
   2.8620076e-02   1.4603373e-01
   2.8684474e-02   1.4601594e-01
   2.8749460e-02   1.4599795e-01
   2.8814846e-02   1.4597980e-01
   2.8880639e-02   1.4596151e-01
   2.8946844e-02   1.4594306e-01
   2.9013679e-02   1.4592439e-01
   2.9081159e-02   1.4590550e-01
   2.9149521e-02   1.4588632e-01
   2.9219023e-02   1.4586677e-01
   2.9289707e-02   1.4584685e-01
   2.9361868e-02   1.4582646e-01
   2.9435053e-02   1.4580573e-01
   2.9509027e-02   1.4578472e-01
   2.9584086e-02   1.4576336e-01
   2.9660265e-02   1.4574162e-01
   2.9737897e-02   1.4571942e-01
   2.9816738e-02   1.4569681e-01
   2.9897150e-02   1.4567369e-01
   2.9979202e-02   1.4565003e-01
   3.0062971e-02   1.4562582e-01
   3.0147450e-02   1.4560133e-01
   3.0231216e-02   1.4557699e-01
   3.0314278e-02   1.4555278e-01
   3.0397340e-02   1.4552851e-01
   3.0480756e-02   1.4550408e-01
   3.0565255e-02   1.4547925e-01
   3.0652017e-02   1.4545370e-01
   3.0740364e-02   1.4542761e-01
   3.0830785e-02   1.4540083e-01
   3.0923390e-02   1.4537332e-01
   3.1018298e-02   1.4534505e-01
   3.1114652e-02   1.4531626e-01
   3.1211500e-02   1.4528723e-01
   3.1306391e-02   1.4525871e-01
   3.1398478e-02   1.4523095e-01
   3.1487908e-02   1.4520392e-01
   3.1574414e-02   1.4517770e-01
   3.1658549e-02   1.4515213e-01
   3.1740797e-02   1.4512707e-01
   3.1821234e-02   1.4510250e-01
   3.1900272e-02   1.4507830e-01
   3.1977954e-02   1.4505446e-01
   3.2054643e-02   1.4503087e-01
   3.2130683e-02   1.4500743e-01
   3.2206081e-02   1.4498413e-01
   3.2281479e-02   1.4496078e-01
   3.2356877e-02   1.4493738e-01
   3.2432275e-02   1.4491392e-01
   3.2507673e-02   1.4489041e-01
   3.2582747e-02   1.4486695e-01
   3.2657180e-02   1.4484364e-01
   3.2730666e-02   1.4482058e-01
   3.2803227e-02   1.4479776e-01
   3.2874880e-02   1.4477517e-01
   3.2946234e-02   1.4475263e-01
   3.3017292e-02   1.4473014e-01
   3.3088648e-02   1.4470751e-01
   3.3160611e-02   1.4468464e-01
   3.3233194e-02   1.4466152e-01
   3.3307057e-02   1.4463795e-01
   3.3381913e-02   1.4461401e-01
   3.3458143e-02   1.4458957e-01
   3.3536171e-02   1.4456450e-01
   3.3616092e-02   1.4453877e-01
   3.3698839e-02   1.4451207e-01
   3.3784186e-02   1.4448446e-01
   3.3872315e-02   1.4445588e-01
   3.3963950e-02   1.4442609e-01
   3.4058837e-02   1.4439516e-01
   3.4156636e-02   1.4436320e-01
   3.4255657e-02   1.4433074e-01
   3.4355305e-02   1.4429799e-01
   3.4456238e-02   1.4426473e-01
   3.4559177e-02   1.4423071e-01
   3.4663507e-02   1.4419613e-01
   3.4770010e-02   1.4416072e-01
   3.4876514e-02   1.4412522e-01
   3.4982272e-02   1.4408986e-01
   3.5087292e-02   1.4405464e-01
   3.5191576e-02   1.4401957e-01
   3.5295861e-02   1.4398440e-01
   3.5400146e-02   1.4394914e-01
   3.5505181e-02   1.4391352e-01
   3.5610215e-02   1.4387780e-01
   3.5716806e-02   1.4384144e-01
   3.5824199e-02   1.4380471e-01
   3.5933243e-02   1.4376731e-01
   3.6044005e-02   1.4372921e-01
   3.6155653e-02   1.4369068e-01
   3.6268209e-02   1.4365174e-01
   3.6381695e-02   1.4361235e-01
   3.6497104e-02   1.4357217e-01
   3.6613508e-02   1.4353153e-01
   3.6729913e-02   1.4349077e-01
   3.6846317e-02   1.4344988e-01
   3.6961700e-02   1.4340923e-01
   3.7076071e-02   1.4336882e-01
   3.7189439e-02   1.4332864e-01
   3.7300835e-02   1.4328906e-01
   3.7409375e-02   1.4325038e-01
   3.7517915e-02   1.4321159e-01
   3.7627407e-02   1.4317236e-01
   3.7734995e-02   1.4313370e-01
   3.7841647e-02   1.4309528e-01
   3.7947372e-02   1.4305709e-01
   3.8054032e-02   1.4301846e-01
   3.8160693e-02   1.4297973e-01
   3.8266401e-02   1.4294125e-01
   3.8370238e-02   1.4290335e-01
   3.8473156e-02   1.4286568e-01
   3.8575164e-02   1.4282826e-01
   3.8676268e-02   1.4279108e-01
   3.8776478e-02   1.4275414e-01
   3.8875802e-02   1.4271743e-01
   3.8975125e-02   1.4268064e-01
   3.9073561e-02   1.4264409e-01
   3.9171119e-02   1.4260778e-01
   3.9267805e-02   1.4257171e-01
   3.9364492e-02   1.4253556e-01
   3.9461178e-02   1.4249932e-01
   3.9557864e-02   1.4246300e-01
   3.9654551e-02   1.4242660e-01
   3.9751237e-02   1.4239012e-01
   3.9847924e-02   1.4235356e-01
   3.9944610e-02   1.4231691e-01
   4.0041297e-02   1.4228018e-01
   4.0137983e-02   1.4224336e-01
   4.0234669e-02   1.4220647e-01
   4.0331356e-02   1.4216949e-01
   4.0428042e-02   1.4213243e-01
   4.0524729e-02   1.4209529e-01
   4.0622412e-02   1.4205768e-01
   4.0720095e-02   1.4201999e-01
   4.0818818e-02   1.4198181e-01
   4.0918613e-02   1.4194313e-01
   4.1019517e-02   1.4190393e-01
   4.1121568e-02   1.4186419e-01
   4.1224806e-02   1.4182390e-01
   4.1330531e-02   1.4178254e-01
   4.1436256e-02   1.4174109e-01
   4.1540692e-02   1.4170004e-01
   4.1643855e-02   1.4165940e-01
   4.1745759e-02   1.4161917e-01
   4.1846420e-02   1.4157933e-01
   4.1947082e-02   1.4153941e-01
   4.2046500e-02   1.4149989e-01
   4.2147178e-02   1.4145979e-01
   4.2246580e-02   1.4142011e-01
   4.2345983e-02   1.4138034e-01
   4.2445386e-02   1.4134048e-01
   4.2544789e-02   1.4130054e-01
   4.2645535e-02   1.4125998e-01
   4.2746281e-02   1.4121932e-01
   4.2847027e-02   1.4117857e-01
   4.2949213e-02   1.4113716e-01
   4.3051398e-02   1.4109565e-01
   4.3153583e-02   1.4105405e-01
   4.3255769e-02   1.4101236e-01
   4.3356429e-02   1.4097121e-01
   4.3457089e-02   1.4092997e-01
   4.3557749e-02   1.4088864e-01
   4.3656861e-02   1.4084786e-01
   4.3755972e-02   1.4080700e-01
   4.3855084e-02   1.4076605e-01
   4.3954195e-02   1.4072502e-01
   4.4053307e-02   1.4068390e-01
   4.4150794e-02   1.4064337e-01
   4.4248280e-02   1.4060276e-01
   4.4347448e-02   1.4056137e-01
   4.4446615e-02   1.4051990e-01
   4.4545783e-02   1.4047834e-01
   4.4644951e-02   1.4043669e-01
   4.4744118e-02   1.4039496e-01
   4.4843286e-02   1.4035315e-01
   4.4942453e-02   1.4031125e-01
   4.5041621e-02   1.4026927e-01
   4.5142812e-02   1.4022635e-01
   4.5244004e-02   1.4018333e-01
   4.5345195e-02   1.4014023e-01
   4.5446387e-02   1.4009705e-01
   4.5547578e-02   1.4005377e-01
   4.5648769e-02   1.4001041e-01
   4.5749961e-02   1.3996696e-01
   4.5851152e-02   1.3992343e-01
   4.5952344e-02   1.3987981e-01
   4.6053535e-02   1.3983610e-01
   4.6157389e-02   1.3979115e-01
   4.6261244e-02   1.3974611e-01
   4.6365098e-02   1.3970098e-01
   4.6468952e-02   1.3965575e-01
   4.6572807e-02   1.3961044e-01
   4.6676661e-02   1.3956503e-01
   4.6780515e-02   1.3951954e-01
   4.6887832e-02   1.3947243e-01
   4.6995148e-02   1.3942522e-01
   4.7098763e-02   1.3937955e-01
   4.7202379e-02   1.3933379e-01
   4.7305995e-02   1.3928794e-01
   4.7409610e-02   1.3924200e-01
   4.7513226e-02   1.3919597e-01
   4.7616841e-02   1.3914984e-01
   4.7720457e-02   1.3910363e-01
   4.7824073e-02   1.3905733e-01
   4.7927688e-02   1.3901094e-01
   4.8031304e-02   1.3896446e-01
   4.8134919e-02   1.3891789e-01
   4.8238535e-02   1.3887122e-01
   4.8306284e-02   1.3884067e-01
   4.8364688e-02   1.3881429e-01
   4.8417440e-02   1.3879045e-01
   4.8466895e-02   1.3876807e-01
   4.8513352e-02   1.3874703e-01
   4.8558402e-02   1.3872661e-01
   4.8602087e-02   1.3870680e-01
   4.8643202e-02   1.3868813e-01
   4.8684317e-02   1.3866945e-01
   4.8724186e-02   1.3865133e-01
   4.8762847e-02   1.3863374e-01
   4.8800337e-02   1.3861667e-01
   4.8836690e-02   1.3860011e-01
   4.8870905e-02   1.3858451e-01
   4.8904114e-02   1.3856936e-01
   4.8936346e-02   1.3855465e-01
   4.8967630e-02   1.3854037e-01
   4.8998914e-02   1.3852607e-01
   4.9029250e-02   1.3851220e-01
   4.9059586e-02   1.3849832e-01
   4.9090933e-02   1.3848398e-01
   4.9123400e-02   1.3846911e-01
   4.9157115e-02   1.3845366e-01
   4.9192235e-02   1.3843756e-01
   4.9228952e-02   1.3842071e-01
   4.9265668e-02   1.3840385e-01
   4.9304317e-02   1.3838610e-01
   4.9345240e-02   1.3836728e-01
   4.9386162e-02   1.3834846e-01
   4.9430008e-02   1.3832827e-01
   4.9473853e-02   1.3830807e-01
   4.9517699e-02   1.3828785e-01
   4.9565929e-02   1.3826559e-01
   4.9614159e-02   1.3824331e-01
   4.9662389e-02   1.3822101e-01
   4.9710619e-02   1.3819869e-01
   4.9758849e-02   1.3817636e-01
   4.9807080e-02   1.3815400e-01
   4.9855310e-02   1.3813163e-01
   4.9903540e-02   1.3810924e-01
   4.9951770e-02   1.3808683e-01
   5.0000000e-02   1.3806439e-01
   5.0053706e-02   1.3803940e-01
   5.0109512e-02   1.3801339e-01
   5.0166141e-02   1.3798698e-01
   5.0223553e-02   1.3796018e-01
   5.0281771e-02   1.3793297e-01
   5.0340819e-02   1.3790535e-01
   5.0400649e-02   1.3787733e-01
   5.0461210e-02   1.3784894e-01
   5.0522597e-02   1.3782013e-01
   5.0584676e-02   1.3779096e-01
   5.0647546e-02   1.3776140e-01
   5.0711226e-02   1.3773141e-01
   5.0775656e-02   1.3770105e-01
   5.0840854e-02   1.3767028e-01
   5.0906839e-02   1.3763911e-01
   5.0973633e-02   1.3760752e-01
   5.1041255e-02   1.3757550e-01
   5.1109729e-02   1.3754304e-01
   5.1179077e-02   1.3751013e-01
   5.1249323e-02   1.3747675e-01
   5.1320492e-02   1.3744290e-01
   5.1392503e-02   1.3740860e-01
   5.1465487e-02   1.3737379e-01
   5.1539360e-02   1.3733852e-01
   5.1614260e-02   1.3730271e-01
   5.1690100e-02   1.3726640e-01
   5.1767027e-02   1.3722953e-01
   5.1845074e-02   1.3719207e-01
   5.1924276e-02   1.3715401e-01
   5.2004670e-02   1.3711532e-01
   5.2086295e-02   1.3707599e-01
   5.2169190e-02   1.3703599e-01
   5.2253548e-02   1.3699523e-01
   5.2339269e-02   1.3695375e-01
   5.2426560e-02   1.3691145e-01
   5.2515316e-02   1.3686837e-01
   5.2605763e-02   1.3682442e-01
   5.2697791e-02   1.3677962e-01
   5.2791644e-02   1.3673387e-01
   5.2887402e-02   1.3668712e-01
   5.2984541e-02   1.3663962e-01
   5.3081480e-02   1.3659214e-01
   5.3178219e-02   1.3654468e-01
   5.3274560e-02   1.3649735e-01
   5.3370703e-02   1.3645004e-01
   5.3466648e-02   1.3640275e-01
   5.3562396e-02   1.3635549e-01
   5.3657947e-02   1.3630825e-01
   5.3753105e-02   1.3626114e-01
   5.3848068e-02   1.3621405e-01
   5.3942835e-02   1.3616698e-01
   5.4037409e-02   1.3611995e-01
   5.4131788e-02   1.3607293e-01
   5.4225973e-02   1.3602595e-01
   5.4319965e-02   1.3597899e-01
   5.4413764e-02   1.3593206e-01
   5.4507178e-02   1.3588525e-01
   5.4600401e-02   1.3583847e-01
   5.4693433e-02   1.3579171e-01
   5.4786274e-02   1.3574498e-01
   5.4878925e-02   1.3569829e-01
   5.4971387e-02   1.3565162e-01
   5.5063470e-02   1.3560507e-01
   5.5155364e-02   1.3555855e-01
   5.5247071e-02   1.3551207e-01
   5.5338591e-02   1.3546561e-01
   5.5429923e-02   1.3541918e-01
   5.5521068e-02   1.3537278e-01
   5.5612027e-02   1.3532641e-01
   5.5702615e-02   1.3528017e-01
   5.5793017e-02   1.3523396e-01
   5.5883236e-02   1.3518777e-01
   5.5973270e-02   1.3514162e-01
   5.6063120e-02   1.3509550e-01
   5.6152788e-02   1.3504941e-01
   5.6242089e-02   1.3500345e-01
   5.6331209e-02   1.3495752e-01
   5.6420148e-02   1.3491162e-01
   5.6508905e-02   1.3486575e-01
   5.6597482e-02   1.3481992e-01
   5.6685878e-02   1.3477411e-01
   5.6774094e-02   1.3472834e-01
   5.6862131e-02   1.3468261e-01
   5.6949988e-02   1.3463690e-01
   5.7037666e-02   1.3459124e-01
   5.7125166e-02   1.3454560e-01
   5.7212487e-02   1.3450000e-01
   5.7299631e-02   1.3445443e-01
   5.7386597e-02   1.3440890e-01
   5.7473386e-02   1.3436340e-01
   5.7559998e-02   1.3431793e-01
   5.7646610e-02   1.3427241e-01
   5.7733046e-02   1.3422692e-01
   5.7819305e-02   1.3418147e-01
   5.7905388e-02   1.3413605e-01
   5.7991471e-02   1.3409058e-01
   5.8077378e-02   1.3404514e-01
   5.8163109e-02   1.3399974e-01
   5.8248841e-02   1.3395428e-01
   5.8334396e-02   1.3390886e-01
   5.8419952e-02   1.3386338e-01
   5.8505332e-02   1.3381794e-01
   5.8590712e-02   1.3377245e-01
   5.8675916e-02   1.3372699e-01
   5.8761121e-02   1.3368148e-01
   5.8846149e-02   1.3363600e-01
   5.8931178e-02   1.3359047e-01
   5.9016031e-02   1.3354498e-01
   5.9100884e-02   1.3349943e-01
   5.9185737e-02   1.3345383e-01
   5.9270413e-02   1.3340827e-01
   5.9355090e-02   1.3336265e-01
   5.9439767e-02   1.3331698e-01
   5.9524444e-02   1.3327126e-01
   5.9609121e-02   1.3322548e-01
   5.9693621e-02   1.3317974e-01
   5.9778121e-02   1.3313395e-01
   5.9862620e-02   1.3308810e-01
   5.9947120e-02   1.3304220e-01
   6.0031620e-02   1.3299625e-01
   6.0115941e-02   1.3295033e-01
   6.0200263e-02   1.3290437e-01
   6.0284584e-02   1.3285835e-01
   6.0368906e-02   1.3281228e-01
   6.0453407e-02   1.3276605e-01
   6.0537908e-02   1.3271977e-01
   6.0622410e-02   1.3267344e-01
   6.0706911e-02   1.3262705e-01
   6.0791594e-02   1.3258051e-01
   6.0893170e-02   1.3252461e-01
   6.1014998e-02   1.3245747e-01
   6.1157801e-02   1.3237862e-01
   6.1321692e-02   1.3228795e-01
   6.1506755e-02   1.3218531e-01
   6.1712602e-02   1.3207085e-01
