t [s]		x3 [m]		WG1 [m]		WG2 [m]		WG3 [m]
0.000000	0.150000	0.000000	0.000000	0.000000
0.001292	0.149996	0.000000	-0.000000	0.000000
0.002781	0.149976	0.000000	-0.000000	-0.000000
0.006685	0.149820	-0.000000	-0.000000	-0.000000
0.007836	0.149746	-0.000000	-0.000000	-0.000000
0.008836	0.149671	-0.000000	-0.000000	-0.000000
0.009836	0.149586	-0.000000	-0.000000	-0.000000
0.010836	0.149491	-0.000000	-0.000000	-0.000000
0.011836	0.149387	-0.000000	-0.000000	-0.000000
0.013836	0.149149	-0.000000	-0.000001	-0.000000
0.014836	0.149016	-0.000000	-0.000001	-0.000000
0.015836	0.148872	-0.000000	-0.000001	-0.000000
0.016836	0.148720	-0.000000	-0.000001	-0.000000
0.017836	0.148557	-0.000000	-0.000001	-0.000000
0.018836	0.148385	-0.000000	-0.000001	-0.000000
0.020836	0.148011	-0.000000	-0.000002	-0.000000
0.021836	0.147810	-0.000000	-0.000002	-0.000000
0.022836	0.147599	-0.000000	-0.000002	-0.000000
0.023836	0.147379	-0.000000	-0.000002	-0.000000
0.024836	0.147149	-0.000000	-0.000002	-0.000000
0.025836	0.146910	-0.000000	-0.000002	0.000000
0.026836	0.146661	-0.000000	-0.000003	-0.000000
0.028836	0.146135	-0.000000	-0.000003	0.000000
0.029836	0.145858	-0.000000	-0.000003	0.000000
0.030836	0.145571	-0.000000	-0.000003	0.000000
0.031836	0.145275	-0.000000	-0.000004	0.000000
0.032836	0.144970	-0.000000	-0.000004	0.000000
0.033836	0.144656	-0.000000	-0.000004	0.000000
0.035836	0.143999	-0.000000	-0.000005	0.000000
0.036836	0.143658	-0.000000	-0.000005	0.000000
0.037836	0.143307	0.000000	-0.000005	0.000000
0.038836	0.142947	-0.000000	-0.000006	0.000000
0.039836	0.142578	-0.000001	-0.000006	0.000000
0.040836	0.142200	-0.000004	-0.000006	0.000000
0.042836	0.141418	-0.000012	-0.000007	0.000000
0.043836	0.141014	-0.000013	-0.000007	0.000000
0.044836	0.140602	-0.000009	-0.000007	0.000000
0.045836	0.140180	0.000004	-0.000008	0.000000
0.046836	0.139750	0.000016	-0.000008	0.000000
0.047836	0.139312	0.000022	-0.000008	0.000000
0.049836	0.138410	0.000023	-0.000009	0.000000
0.050836	0.137947	0.000021	-0.000009	0.000000
0.051836	0.137475	0.000019	-0.000009	0.000000
0.052836	0.136995	0.000016	-0.000010	0.000000
0.053836	0.136508	0.000013	-0.000010	0.000000
0.054836	0.136012	0.000011	-0.000010	0.000000
0.056836	0.134996	0.000008	-0.000011	0.000000
0.057836	0.134477	0.000007	-0.000011	0.000000
0.058836	0.133950	0.000006	-0.000011	0.000000
0.059836	0.133415	0.000005	-0.000012	0.000000
0.060836	0.132873	0.000003	-0.000012	0.000000
0.061836	0.132323	-0.000002	-0.000012	0.000000
0.063836	0.131200	-0.000009	-0.000013	0.000001
0.064836	0.130628	0.000003	-0.000013	0.000001
0.065836	0.130049	0.000021	-0.000014	0.000001
0.066836	0.129463	0.000027	-0.000014	0.000001
0.067836	0.128869	0.000028	-0.000016	0.000001
0.068836	0.128269	0.000026	-0.000018	0.000001
0.070836	0.127047	0.000020	-0.000024	0.000001
0.071836	0.126426	0.000017	-0.000026	0.000001
0.072836	0.125798	0.000015	-0.000029	0.000001
0.073836	0.125163	0.000014	-0.000030	0.000001
0.074836	0.124522	0.000013	-0.000029	0.000001
0.075836	0.123875	0.000013	-0.000026	0.000001
0.076836	0.123221	0.000010	-0.000019	0.000001
0.078836	0.121893	-0.000002	0.000000	0.000002
0.079836	0.121220	0.000010	0.000002	0.000002
0.080836	0.120541	0.000031	0.000003	0.000002
0.081836	0.119856	0.000038	0.000003	0.000002
0.082836	0.119165	0.000037	0.000003	0.000002
0.083836	0.118467	0.000033	0.000000	0.000002
0.085836	0.117055	0.000026	-0.000004	0.000003
0.086836	0.116340	0.000024	-0.000006	0.000003
0.087836	0.115620	0.000024	-0.000008	0.000003
0.088836	0.114894	0.000025	-0.000009	0.000003
0.089836	0.114162	0.000022	-0.000011	0.000003
0.090836	0.113424	0.000015	-0.000012	0.000004
0.092836	0.111934	0.000033	-0.000015	0.000004
0.093836	0.111180	0.000051	-0.000016	0.000004
0.094836	0.110421	0.000054	-0.000017	0.000004
0.095836	0.109657	0.000052	-0.000018	0.000004
0.096836	0.108888	0.000048	-0.000019	0.000005
0.097836	0.108113	0.000046	-0.000019	0.000005
0.099836	0.106549	0.000044	-0.000021	0.000005
0.100836	0.105759	0.000045	-0.000023	0.000005
0.101836	0.104965	0.000044	-0.000026	0.000006
0.102836	0.104165	0.000037	-0.000029	0.000006
0.103836	0.103361	0.000034	-0.000033	0.000006
0.104836	0.102552	0.000054	-0.000037	0.000005
0.106836	0.100920	0.000077	-0.000036	0.000004
0.107836	0.100096	0.000074	-0.000029	0.000003
0.108836	0.099269	0.000071	-0.000018	0.000002
0.109836	0.098436	0.000069	-0.000011	0.000001
0.110836	0.097600	0.000068	-0.000006	-0.000000
0.111836	0.096759	0.000069	-0.000004	-0.000002
0.113836	0.095063	0.000064	-0.000005	-0.000005
0.114836	0.094209	0.000060	-0.000007	-0.000006
0.115836	0.093351	0.000079	-0.000009	-0.000006
0.116836	0.092488	0.000102	-0.000011	-0.000006
0.117836	0.091621	0.000106	-0.000014	-0.000006
0.118836	0.090750	0.000103	-0.000016	-0.000004
0.120836	0.088997	0.000099	-0.000020	0.000001
0.121836	0.088114	0.000100	-0.000021	0.000006
0.122836	0.087227	0.000102	-0.000023	0.000011
0.123836	0.086337	0.000099	-0.000024	0.000018
0.124836	0.085443	0.000096	-0.000025	0.000021
0.125836	0.084545	0.000099	-0.000026	0.000024
0.126836	0.083643	0.000130	-0.000026	0.000026
0.128836	0.081829	0.000142	-0.000029	0.000030
0.129836	0.080916	0.000139	-0.000031	0.000031
0.130836	0.080000	0.000138	-0.000035	0.000032
0.131836	0.079081	0.000138	-0.000039	0.000032
0.132836	0.078158	0.000141	-0.000043	0.000032
0.133836	0.077232	0.000143	-0.000044	0.000032
0.135836	0.075370	0.000138	-0.000030	0.000032
0.136836	0.074434	0.000170	-0.000018	0.000032
0.137836	0.073495	0.000186	-0.000012	0.000031
0.138836	0.072553	0.000187	-0.000009	0.000031
0.139836	0.071608	0.000185	-0.000008	0.000030
0.140836	0.070660	0.000184	-0.000010	0.000029
0.142836	0.068756	0.000189	-0.000013	0.000028
0.143836	0.067799	0.000189	-0.000016	0.000028
0.144836	0.066840	0.000184	-0.000018	0.000027
0.145836	0.065878	0.000196	-0.000020	0.000027
0.146836	0.064913	0.000229	-0.000022	0.000026
0.147836	0.063946	0.000237	-0.000023	0.000026
0.149836	0.062004	0.000236	-0.000025	0.000025
0.150836	0.061029	0.000237	-0.000026	0.000025
0.151836	0.060052	0.000240	-0.000027	0.000025
0.152836	0.059073	0.000245	-0.000027	0.000025
0.153836	0.058091	0.000242	-0.000028	0.000024
0.154836	0.057107	0.000240	-0.000030	0.000024
0.156836	0.055133	0.000293	-0.000037	0.000024
0.157836	0.054143	0.000296	-0.000042	0.000024
0.158836	0.053151	0.000295	-0.000045	0.000024
0.159836	0.052157	0.000295	-0.000044	0.000024
0.160836	0.051161	0.000298	-0.000036	0.000024
0.161836	0.050163	0.000304	-0.000022	0.000024
0.163836	0.048162	0.000301	-0.000008	0.000024
0.164836	0.047159	0.000320	-0.000007	0.000024
0.165836	0.046155	0.000353	-0.000007	0.000025
0.166836	0.045149	0.000360	-0.000008	0.000025
0.167836	0.044141	0.000359	-0.000010	0.000025
0.168836	0.043132	0.000360	-0.000012	0.000025
0.170836	0.041110	0.000369	-0.000017	0.000024
0.171836	0.040097	0.000372	-0.000018	0.000023
0.172836	0.039083	0.000368	-0.000020	0.000022
0.173836	0.038068	0.000382	-0.000021	0.000021
0.174836	0.037051	0.000420	-0.000022	0.000019
0.175836	0.036034	0.000429	-0.000022	0.000018
0.176836	0.035015	0.000430	-0.000023	0.000016
0.178836	0.032976	0.000434	-0.000024	0.000014
0.179836	0.031955	0.000441	-0.000026	0.000013
0.180836	0.030933	0.000445	-0.000030	0.000014
0.181836	0.029911	0.000442	-0.000034	0.000015
0.182836	0.028888	0.000455	-0.000038	0.000017
0.183836	0.027864	0.000494	-0.000038	0.000021
0.185836	0.025815	0.000507	-0.000020	0.000032
0.186836	0.024790	0.000508	-0.000004	0.000040
0.187836	0.023765	0.000512	0.000001	0.000044
0.188836	0.022739	0.000519	0.000003	0.000047
0.189836	0.021713	0.000521	0.000003	0.000050
0.190836	0.020687	0.000519	0.000001	0.000052
0.192836	0.018634	0.000578	-0.000002	0.000054
0.193836	0.017608	0.000587	-0.000004	0.000054
0.194836	0.016582	0.000589	-0.000006	0.000055
0.195836	0.015555	0.000592	-0.000007	0.000055
0.196836	0.014529	0.000598	-0.000008	0.000055
0.197836	0.013503	0.000607	-0.000009	0.000054
0.199836	0.011452	0.000608	-0.000009	0.000053
0.200836	0.010427	0.000631	-0.000009	0.000053
0.201836	0.009402	0.000670	-0.000010	0.000053
0.202836	0.008378	0.000680	-0.000012	0.000052
0.203836	0.007354	0.000683	-0.000015	0.000052
0.204836	0.006331	0.000687	-0.000019	0.000051
0.206836	0.004287	0.000703	-0.000024	0.000051
0.207836	0.003266	0.000709	-0.000021	0.000050
0.208836	0.002246	0.000708	-0.000012	0.000050
0.209836	0.001226	0.000730	0.000004	0.000050
0.210836	0.000208	0.000769	0.000013	0.000049
0.211836	-0.000810	0.000783	0.000019	0.000049
0.213836	-0.002842	0.000791	0.000022	0.000049
0.214836	-0.003856	0.000798	0.000022	0.000049
0.215836	-0.004869	0.000807	0.000020	0.000049
0.216836	-0.005881	0.000812	0.000019	0.000049
0.217836	-0.006892	0.000811	0.000018	0.000049
0.218836	-0.007901	0.000830	0.000017	0.000049
0.220836	-0.009915	0.000888	0.000016	0.000049
0.221836	-0.010920	0.000893	0.000015	0.000049
0.222836	-0.011924	0.000899	0.000016	0.000050
0.223836	-0.012926	0.000914	0.000016	0.000050
0.224836	-0.013926	0.000900	0.000016	0.000050
0.225836	-0.014924	0.000798	0.000016	0.000051
0.226836	-0.015921	0.000612	0.000014	0.000051
0.228836	-0.017909	0.000227	0.000008	0.000050
0.229836	-0.018900	0.000072	0.000005	0.000050
0.230836	-0.019889	0.000237	0.000003	0.000050
0.231836	-0.020876	0.000441	0.000004	0.000049
0.232836	-0.021861	0.000609	0.000010	0.000048
0.233836	-0.022844	0.000748	0.000025	0.000046
0.235836	-0.024802	0.000957	0.000047	0.000044
0.236836	-0.025778	0.001036	0.000051	0.000043
0.237836	-0.026752	0.001102	0.000053	0.000042
0.238836	-0.027723	0.001156	0.000054	0.000041
0.239836	-0.028692	0.001201	0.000053	0.000041
0.240836	-0.029658	0.001236	0.000052	0.000042
0.242836	-0.031582	0.001277	0.000051	0.000046
0.243836	-0.032540	0.001287	0.000050	0.000050
0.244836	-0.033495	0.001295	0.000050	0.000055
0.245836	-0.034448	0.001310	0.000050	0.000062
0.246836	-0.035397	0.001342	0.000050	0.000068
0.247836	-0.036344	0.001373	0.000051	0.000072
0.249836	-0.038229	0.001393	0.000052	0.000079
0.250836	-0.039166	0.001396	0.000052	0.000082
0.251836	-0.040101	0.001398	0.000048	0.000084
0.252836	-0.041032	0.001400	0.000039	0.000086
0.253836	-0.041960	0.001403	0.000024	0.000087
0.254836	-0.042885	0.001407	0.000003	0.000088
0.256836	-0.044724	0.001419	-0.000052	0.000089
0.257836	-0.045639	0.001426	-0.000081	0.000090
0.258836	-0.046550	0.001435	-0.000109	0.000090
0.259836	-0.047458	0.001443	-0.000131	0.000090
0.260836	-0.048362	0.001450	-0.000147	0.000090
0.261836	-0.049262	0.001453	-0.000151	0.000090
0.263836	-0.051052	0.001456	-0.000157	0.000090
0.264836	-0.051942	0.001460	-0.000158	0.000090
0.265836	-0.052827	0.001473	-0.000158	0.000090
0.266836	-0.053709	0.001502	-0.000155	0.000090
0.267836	-0.054586	0.001552	-0.000150	0.000090
0.268836	-0.055460	0.001591	-0.000143	0.000090
0.270836	-0.057196	0.001637	-0.000120	0.000091
0.271836	-0.058058	0.001651	-0.000104	0.000091
0.272836	-0.058915	0.001663	-0.000085	0.000091
0.273836	-0.059769	0.001674	-0.000063	0.000091
0.274836	-0.060618	0.001688	-0.000037	0.000091
0.275836	-0.061463	0.001704	-0.000006	0.000092
0.276836	-0.062304	0.001727	0.000029	0.000092
0.278836	-0.063972	0.001776	0.000112	0.000093
0.279836	-0.064800	0.001783	0.000160	0.000093
0.280836	-0.065623	0.001770	0.000213	0.000093
0.281836	-0.066442	0.001732	0.000270	0.000094
0.282836	-0.067256	0.001661	0.000333	0.000094
0.283836	-0.068066	0.001553	0.000405	0.000095
0.285836	-0.069671	0.001251	0.000574	0.000096
0.286836	-0.070467	0.001074	0.000636	0.000096
0.287836	-0.071258	0.000898	0.000690	0.000097
0.288836	-0.072044	0.000730	0.000737	0.000098
0.289836	-0.072826	0.000574	0.000777	0.000098
0.290836	-0.073603	0.000430	0.000811	0.000099
0.292836	-0.075142	0.000184	0.000864	0.000100
0.293836	-0.075904	0.000079	0.000885	0.000100
0.294836	-0.076661	0.000181	0.000902	0.000101
0.295836	-0.077414	0.000381	0.000916	0.000101
0.296836	-0.078161	0.000565	0.000926	0.000101
0.297836	-0.078903	0.000737	0.000934	0.000101
0.299836	-0.080373	0.001044	0.000943	0.000101
0.300836	-0.081100	0.001181	0.000943	0.000101
0.301836	-0.081822	0.001308	0.000942	0.000101
0.302836	-0.082538	0.001426	0.000938	0.000100
0.303836	-0.083250	0.001536	0.000931	0.000100
0.304836	-0.083956	0.001639	0.000922	0.000100
0.306836	-0.085352	0.001822	0.000896	0.000099
0.307836	-0.086043	0.001905	0.000879	0.000098
0.308836	-0.086728	0.001982	0.000858	0.000098
0.309836	-0.087407	0.002054	0.000835	0.000098
0.310836	-0.088082	0.002120	0.000810	0.000098
0.311836	-0.088750	0.002183	0.000783	0.000098
0.313836	-0.090071	0.002295	0.000726	0.000100
0.314836	-0.090724	0.002346	0.000696	0.000101
0.315836	-0.091371	0.002394	0.000667	0.000103
0.316836	-0.092012	0.002439	0.000639	0.000105
0.317836	-0.092648	0.002480	0.000612	0.000108
0.318836	-0.093278	0.002520	0.000587	0.000111
0.320836	-0.094521	0.002591	0.000541	0.000120
0.321836	-0.095135	0.002630	0.000508	0.000126
0.322836	-0.095742	0.002659	0.000486	0.000131
0.323836	-0.096344	0.002684	0.000463	0.000134
0.324836	-0.096940	0.002707	0.000441	0.000138
0.325836	-0.097531	0.002728	0.000419	0.000141
0.326836	-0.098116	0.002746	0.000398	0.000144
0.328836	-0.099268	0.002775	0.000367	0.000148
0.329836	-0.099835	0.002789	0.000340	0.000151
0.330836	-0.100397	0.002801	0.000322	0.000153
0.331836	-0.100953	0.002812	0.000304	0.000155
0.332836	-0.101503	0.002822	0.000288	0.000157
0.333836	-0.102047	0.002831	0.000264	0.000158
0.335836	-0.103118	0.002851	0.000237	0.000161
0.336836	-0.103644	0.002861	0.000225	0.000162
0.337836	-0.104165	0.002871	0.000215	0.000163
0.338836	-0.104680	0.002883	0.000206	0.000164
0.339836	-0.105188	0.002897	0.000198	0.000165
0.340836	-0.105691	0.002912	0.000190	0.000166
0.342836	-0.106678	0.002951	0.000182	0.000167
0.343836	-0.107163	0.002975	0.000180	0.000168
0.344836	-0.107642	0.003002	0.000181	0.000169
0.345836	-0.108115	0.003032	0.000183	0.000169
0.346836	-0.108581	0.003065	0.000187	0.000170
0.347836	-0.109042	0.003104	0.000192	0.000171
0.349836	-0.109945	0.003184	0.000205	0.000172
0.350836	-0.110387	0.003224	0.000214	0.000173
0.351836	-0.110824	0.003263	0.000223	0.000173
0.352836	-0.111254	0.003302	0.000234	0.000174
0.353836	-0.111678	0.003341	0.000245	0.000175
0.354836	-0.112096	0.003380	0.000257	0.000175
0.356836	-0.112914	0.003459	0.000285	0.000177
0.357836	-0.113313	0.003499	0.000301	0.000177
0.358836	-0.113707	0.003541	0.000318	0.000178
0.359836	-0.114094	0.003584	0.000337	0.000179
0.360836	-0.114475	0.003628	0.000358	0.000179
0.361836	-0.114851	0.003674	0.000381	0.000180
0.363836	-0.115582	0.003768	0.000431	0.000181
0.364836	-0.115939	0.003817	0.000459	0.000182
0.365836	-0.116289	0.003866	0.000489	0.000183
0.366836	-0.116633	0.003916	0.000520	0.000184
0.367836	-0.116971	0.003968	0.000554	0.000184
0.368836	-0.117303	0.004020	0.000590	0.000185
0.370836	-0.117948	0.004129	0.000660	0.000186
0.371836	-0.118261	0.004184	0.000686	0.000187
0.372836	-0.118568	0.004247	0.000721	0.000188
0.373836	-0.118869	0.004303	0.000743	0.000188
0.374836	-0.119163	0.004368	0.000773	0.000189
0.375836	-0.119452	0.004432	0.000799	0.000190
0.376836	-0.119734	0.004491	0.000817	0.000190
0.378836	-0.120279	0.004612	0.000849	0.000192
0.379836	-0.120543	0.004672	0.000864	0.000192
0.380836	-0.120800	0.004737	0.000880	0.000193
0.381836	-0.121051	0.004799	0.000893	0.000194
0.382836	-0.121296	0.004860	0.000905	0.000194
0.383836	-0.121534	0.004927	0.000919	0.000195
0.385836	-0.121993	0.005051	0.000939	0.000196
0.386836	-0.122212	0.005113	0.000948	0.000197
0.387836	-0.122426	0.005175	0.000957	0.000198
0.388836	-0.122633	0.005236	0.000965	0.000199
0.389836	-0.122835	0.005298	0.000973	0.000199
0.390836	-0.123029	0.005359	0.000980	0.000200
0.392836	-0.123401	0.005480	0.000994	0.000201
0.393836	-0.123577	0.005539	0.001000	0.000202
0.394836	-0.123747	0.005597	0.001007	0.000202
0.395836	-0.123911	0.005655	0.001013	0.000203
0.396836	-0.124068	0.005716	0.001021	0.000204
0.397836	-0.124220	0.005771	0.001027	0.000204
0.399836	-0.124504	0.005879	0.001041	0.000206
0.400836	-0.124636	0.005930	0.001047	0.000206
0.401836	-0.124763	0.005981	0.001054	0.000207
0.402836	-0.124883	0.006029	0.001062	0.000207
0.403836	-0.124997	0.006076	0.001069	0.000208
0.404836	-0.125105	0.006121	0.001076	0.000209
0.406836	-0.125303	0.006206	0.001091	0.000210
0.407836	-0.125392	0.006246	0.001098	0.000210
0.408836	-0.125475	0.006284	0.001105	0.000211
0.409836	-0.125552	0.006320	0.001112	0.000212
0.410836	-0.125623	0.006355	0.001120	0.000212
0.411836	-0.125687	0.006387	0.001127	0.000213
0.413836	-0.125798	0.006448	0.001141	0.000214
0.414836	-0.125844	0.006476	0.001148	0.000215
0.415836	-0.125884	0.006501	0.001156	0.000215
0.416836	-0.125918	0.006525	0.001163	0.000216
0.417836	-0.125946	0.006547	0.001170	0.000216
0.418836	-0.125967	0.006568	0.001177	0.000217
0.420836	-0.125992	0.006606	0.001192	0.000218
0.421836	-0.125995	0.006623	0.001199	0.000218
0.422836	-0.125992	0.006639	0.001206	0.000219
0.423836	-0.125983	0.006654	0.001214	0.000219
0.424836	-0.125968	0.006667	0.001221	0.000220
0.425836	-0.125946	0.006680	0.001228	0.000220
0.426836	-0.125919	0.006690	0.001236	0.000221
0.428836	-0.125846	0.006708	0.001251	0.000222
0.429836	-0.125801	0.006715	0.001258	0.000222
0.430836	-0.125749	0.006720	0.001266	0.000223
0.431836	-0.125691	0.006725	0.001273	0.000223
0.432836	-0.125628	0.006728	0.001281	0.000224
0.433836	-0.125558	0.006730	0.001289	0.000224
0.435836	-0.125401	0.006730	0.001304	0.000225
0.436836	-0.125313	0.006728	0.001312	0.000226
0.437836	-0.125219	0.006725	0.001319	0.000226
0.438836	-0.125119	0.006721	0.001327	0.000227
0.439836	-0.125013	0.006716	0.001335	0.000227
0.440836	-0.124902	0.006711	0.001342	0.000228
0.442836	-0.124660	0.006696	0.001358	0.000228
0.443836	-0.124531	0.006688	0.001365	0.000229
0.444836	-0.124395	0.006679	0.001373	0.000229
0.445836	-0.124254	0.006669	0.001380	0.000230
0.446836	-0.124106	0.006658	0.001387	0.000230
0.447836	-0.123953	0.006647	0.001395	0.000231
0.449836	-0.123629	0.006620	0.001409	0.000232
0.450836	-0.123458	0.006608	0.001415	0.000232
0.451836	-0.123281	0.006595	0.001422	0.000232
0.452836	-0.123098	0.006582	0.001429	0.000233
0.453836	-0.122910	0.006569	0.001436	0.000233
0.454836	-0.122715	0.006556	0.001442	0.000234
0.456836	-0.122309	0.006530	0.001456	0.000235
0.457836	-0.122097	0.006517	0.001462	0.000235
0.458836	-0.121879	0.006504	0.001468	0.000236
0.459836	-0.121656	0.006491	0.001474	0.000236
0.460836	-0.121426	0.006478	0.001480	0.000237
0.461836	-0.121191	0.006462	0.001485	0.000237
0.463836	-0.120704	0.006439	0.001494	0.000238
0.464836	-0.120452	0.006425	0.001497	0.000238
0.465836	-0.120194	0.006415	0.001501	0.000239
0.466836	-0.119930	0.006404	0.001503	0.000239
0.467836	-0.119661	0.006395	0.001506	0.000240
0.468836	-0.119386	0.006382	0.001505	0.000240
0.470836	-0.118819	0.006362	0.001502	0.000241
0.471836	-0.118527	0.006356	0.001500	0.000242
0.472836	-0.118229	0.006345	0.001493	0.000242
0.473836	-0.117926	0.006341	0.001489	0.000243
0.474836	-0.117617	0.006336	0.001483	0.000243
0.475836	-0.117303	0.006333	0.001477	0.000244
0.476836	-0.116983	0.006330	0.001470	0.000245
0.478836	-0.116326	0.006327	0.001450	0.000246
0.479836	-0.115990	0.006326	0.001438	0.000246
0.480836	-0.115647	0.006325	0.001423	0.000247
0.481836	-0.115300	0.006324	0.001406	0.000248
0.482836	-0.114947	0.006325	0.001387	0.000248
0.483836	-0.114588	0.006324	0.001364	0.000249
0.485836	-0.113854	0.006326	0.001306	0.000250
0.486836	-0.113479	0.006327	0.001274	0.000251
0.487836	-0.113099	0.006328	0.001243	0.000252
0.488836	-0.112713	0.006329	0.001213	0.000252
0.489836	-0.112322	0.006330	0.001185	0.000253
0.490836	-0.111925	0.006331	0.001158	0.000254
0.492836	-0.111116	0.006332	0.001108	0.000256
0.493836	-0.110703	0.006332	0.001084	0.000257
0.494836	-0.110285	0.006331	0.001062	0.000258
0.495836	-0.109862	0.006328	0.001038	0.000259
0.496836	-0.109433	0.006326	0.001019	0.000260
0.497836	-0.108999	0.006323	0.001001	0.000261
0.499836	-0.108116	0.006313	0.000968	0.000264
0.500836	-0.107666	0.006306	0.000953	0.000265
0.501836	-0.107211	0.006298	0.000939	0.000266
0.502836	-0.106751	0.006287	0.000927	0.000268
0.503836	-0.106286	0.006275	0.000916	0.000269
