t [s]		x3 [m]		WG1 [m]		WG2 [m]		WG3 [m]
0	0.03	0	0	0
0.00119904	0.0299990541333	-8.278065311007E-07	-3.659994758376E-07	-1.560361995168E-08
0.00263616	0.0299943076267	-5.980306814202E-07	-2.717955558396E-07	-8.4068767503E-09
0.00435873	0.0299825412025	-4.447939545571E-07	-2.227813178379E-07	1.099324187237E-09
0.00642437	0.0299603524761	-3.681694913382E-07	-2.252234625466E-07	1.463966370352E-08
0.00890212	0.0299221739457	-1.415395323168E-07	-1.887308112014E-07	3.962558281501E-08
0.0118695	0.0298597963764	2.529229314874E-07	-1.197335364189E-07	8.078411317669E-08
0.0153124	0.0297648091778	8.485330456054E-07	-2.762489370589E-08	1.418274622189E-07
0.0192199	0.0296278564568	1.711113396752E-06	1.052632860876E-07	2.303156274586E-07
0.0235597	0.0294398265	2.901664893695E-06	2.877051077377E-07	3.52646432944E-07
0.0276452	0.0292288953862	4.243481460886E-06	4.921091356636E-07	4.908053017338E-07
0.0313565	0.0290095483888	5.644763522827E-06	7.042123559842E-07	6.353930892544E-07
0.0346624	0.028792379567	7.037550116884E-06	9.137041585561E-07	7.793796248379E-07
0.0374364	0.028594553499	8.310466355965E-06	1.103966276172E-06	9.111881702495E-07
0.0400663	0.02839398332	9.605340592245E-06	1.296397936112E-06	1.045485784168E-06
0.0429577	0.0281587450903	1.112989311025E-05	1.521671367133E-06	1.203896339952E-06
0.0461692	0.027879235448	1.294854063572E-05	1.78882049795E-06	1.393348062706E-06
0.0494358	0.0275755147792	1.493962402943E-05	2.078161673857E-06	1.60059525145E-06
0.0527711	0.0272456552688	1.711470502563E-05	2.391269114277E-06	1.827288333534E-06
0.0561662	0.0268897656651	1.947661736112E-05	2.727463237484E-06	2.073706393713E-06
0.0596235	0.0265068279337	2.203543639512E-05	3.086532004648E-06	2.340939916579E-06
0.0631323	0.0260973846807	2.479441917247E-05	3.465388061397E-06	2.629036770507E-06
0.0665516	0.0256786946356	2.764198834004E-05	3.843110269575E-06	2.926070028497E-06
0.0699214	0.025247477128	3.060432136914E-05	4.212581486751E-06	3.234570672195E-06
0.0734048	0.0247827325851	3.383626535491E-05	4.601397644688E-06	3.57006821039E-06
0.0770385	0.0242777427316	3.739651616375E-05	5.070624713888E-06	3.938171116769E-06
0.0807452	0.0237418936956	4.122987942434E-05	5.566697768078E-06	4.332736595725E-06
0.0844973	0.0231788359819	4.531850355161E-05	6.082161904786E-06	4.751729531627E-06
0.0883278	0.0225832491111	4.970158681239E-05	6.625844233277E-06	5.19984843006E-06
0.0923264	0.0219398752675	5.45551130906E-05	7.215640141389E-06	5.689703625134E-06
0.0963427	0.0212721583969	5.971522251036E-05	7.833326889362E-06	6.204274654031E-06
0.100289	0.0205960037352	6.504997622603E-05	8.467089154252E-06	6.731674253579E-06
0.104167	0.0199129451034	7.052618353809E-05	9.118562631638E-06	7.270947167903E-06
0.107979	0.0192243386911	7.6135275628E-05	9.78984590061E-06	7.821236886585E-06
0.111743	0.0185284735914	8.189160131344E-05	1.048628310896E-05	8.384140949058E-06
0.115459	0.0178264850222	8.778633324358E-05	1.120995043413E-05	8.95898217923E-06
0.11913	0.0171194484454	9.377535922583E-05	1.196288074201E-05	9.54506001527E-06
0.122755	0.016408379288	9.993439824241E-05	1.274462041545E-05	1.014170348723E-05
0.12635	0.0156912825979	0.00010629797577	1.355353298305E-05	1.075079220669E-05
0.129916	0.0149690360458	0.000112791465635	1.437351958744E-05	1.137179818533E-05
0.133453	0.0142424889743	0.000119429250102	1.517107531779E-05	1.200415190983E-05
0.136961	0.0135124603973	0.000126212139502	1.587385946866E-05	1.264732152473E-05
0.140455	0.0127767511685	0.000133165917592	1.647534541149E-05	1.330346821815E-05
0.143935	0.0120360779364	0.000140265732393	1.722670895088E-05	1.397216577237E-05
0.147387	0.0112941636732	0.000147379261994	1.825536850042E-05	1.465015435187E-05
0.150825	0.010548713318	0.000154786457463	1.939370821624E-05	1.533970493517E-05
0.154249	0.00980040089204	0.000162383428931	2.055281493707E-05	1.604035137115E-05
0.157659	0.00904988934439	0.000170109362851	2.173774179104E-05	1.67516035039E-05
0.161056	0.00829782904964	0.000177953329352	2.29426597067E-05	1.747294821897E-05
0.164452	0.00754179636742	0.000185938478269	2.41745311369E-05	1.820689990861E-05
0.167849	0.00678238032077	0.00019404578893	2.543676401912E-05	1.895306094246E-05
0.171245	0.00602017228371	0.000202202999463	2.673540879305E-05	1.971100424214E-05
0.174642	0.00525576680564	0.000210341580959	2.807648078607E-05	2.04802558823E-05
0.178038	0.00448975893436	0.000219028137375	2.946469297704E-05	2.126037193584E-05
0.181435	0.0037227425364	0.000227958566734	3.086259472784E-05	2.205158901214E-05
0.184846	0.00295211033212	0.000237222072555	3.222745924791E-05	2.285625568632E-05
0.188271	0.00217841284633	0.000246841052881	3.338259995989E-05	2.367389743174E-05
0.19171	0.00140221280663	0.000256799492819	3.444194271074E-05	2.450408858357E-05
0.19515	0.000627394171633	0.000266929568251	3.518861985352E-05	2.53426260084E-05
0.198604	-0.00014875212122	0.000276906472108	3.604587825823E-05	2.619269658677E-05
0.202073	-0.000925634218082	0.000287650588224	3.729403222641E-05	2.705375546119E-05
0.205558	-0.00170264887514	0.000298679288135	3.894017264106E-05	2.792519929651E-05
0.209073	-0.00248260786713	0.000309992430435	4.063972071178E-05	2.881050033077E-05
0.212604	-0.00326145253816	0.000321527093991	4.243566090123E-05	2.970485452458E-05
0.216167	-0.00404204804495	0.000333320038197	4.427241239435E-05	3.06117463289E-05
0.219762	-0.00482376615956	0.000345231457422	4.615635096661E-05	3.153034871861E-05
0.223391	-0.00560595151612	0.000356827087062	4.813616666599E-05	3.246017359482E-05
0.227054	-0.00638792695499	0.000369173249013	5.02013133441E-05	3.340055198287E-05
0.230771	-0.00717271739015	0.000381918557599	5.229535169748E-05	3.435570273647E-05
0.234541	-0.00795964193449	0.000394876477244	5.436971447015E-05	3.532562314623E-05
0.238369	-0.0087479709521	0.000408023852112	5.631267064077E-05	3.630992974868E-05
0.242254	-0.00953692066828	0.000421345894162	5.792733245258E-05	3.730811542502E-05
0.246201	-0.0103256449542	0.00043466748199	5.94449043767E-05	3.83200319769E-05
0.250232	-0.0111174039071	0.000447522228101	6.058622423488E-05	3.935169672831E-05
0.254352	-0.0119113079171	0.000461354529818	6.162728170978E-05	4.040351668033E-05
0.258564	-0.0127063622661	0.000475984118323	6.286106282349E-05	4.147599385895E-05
0.2629	-0.0135060409807	0.000491154495877	6.462741112712E-05	4.257707544575E-05
0.267186	-0.0142770301851	0.000506269184698	6.758187373146E-05	4.365591718392E-05
0.271496	-0.0150323198999	0.000521587246204	7.073595580565E-05	4.473581003372E-05
0.275912	-0.0157840039543	0.000537055128178	7.402069252915E-05	4.584072901137E-05
0.280494	-0.0165397891679	0.000552319435653	7.74790246223E-05	4.698954321647E-05
0.284936	-0.0172476954184	0.000567565515039	8.079639478753E-05	4.809473712308E-05
0.289218	-0.0179067009252	0.00058341712255	8.382868296675E-05	4.915599347166E-05
0.293423	-0.0185309698668	0.000599211606873	8.671078122591E-05	5.018420245406E-05
0.297142	-0.0190635259329	0.000613335958092	8.913864261961E-05	5.107640228763E-05
0.300442	-0.0195206409007	0.000625986148681	9.121799301504E-05	5.185538702257E-05
0.303369	-0.0199138081482	0.000637280560498	9.290901971237E-05	5.255253315806E-05
0.305988	-0.0202556177	0.000647422038124	9.431187866227E-05	5.317803653027E-05
0.308325	-0.0205525479913	0.000656470081908	9.549156818611E-05	5.373795419583E-05
0.31046	-0.0208171057073	0.000664724895848	9.653323544478E-05	5.425176673324E-05
0.312555	-0.0210705042695	0.000672814309459	9.759014879274E-05	5.475616985295E-05
0.314766	-0.0213308021628	0.000681310636413	9.878558494636E-05	5.528908309849E-05
0.317231	-0.0216124558196	0.000690665224402	0.000100218592574	5.588605209184E-05
0.320006	-0.021918545763	0.0007008849516	0.000101907301235	5.656108673957E-05
0.323154	-0.0222513608026	0.000712265291677	0.00010387235282	5.732936272507E-05
0.326661	-0.0226039211747	0.000724948918748	0.0001060300522	5.818534945323E-05
0.329455	-0.0228711979368	0.000735867010133	0.0001074450958	5.885968760211E-05
0.331752	-0.0230820970434	0.000745071024864	0.000108542086909	5.94111623835E-05
0.333777	-0.0232614950057	0.000753253022244	0.000109556361615	5.989671566908E-05
0.335622	-0.0234194992956	0.000760673745366	0.000110509867404	6.033912216896E-05
0.337343	-0.0235620879423	0.000767530228892	0.000111467578716	6.075197748823E-05
0.338963	-0.0236920759647	0.000773925770975	0.000112406646001	6.114114868971E-05
0.340497	-0.0238113243284	0.000779931236659	0.000113337021373	6.151028785162E-05
0.341959	-0.0239215600699	0.000785612166234	0.000114267000015	6.186372078298E-05
0.343351	-0.0240232881561	0.000790974739672	0.000115193450254	6.220161946491E-05
0.344683	-0.0241177979703	0.000796072944398	0.000116120969793	6.252669110873E-05
0.345963	-0.0242059477783	0.000800940450893	0.000117050430919	6.284053038286E-05
0.347199	-0.024288606344	0.000805614409935	0.000117983983296	6.314515016781E-05
0.348397	-0.0243663439503	0.000810116682429	0.000118921927403	6.344146199622E-05
0.349558	-0.0244395181284	0.000814458513418	0.000119861339095	6.372985500391E-05
0.350687	-0.0245085706986	0.000818657689957	0.000120802030685	6.401116765087E-05
0.351788	-0.0245738813157	0.000822729353057	0.000121743212471	6.428614473375E-05
0.352861	-0.0246356774178	0.000826680027236	0.00012268266379	6.455501443536E-05
0.353908	-0.0246941689571	0.00083051573118	0.000123618339495	6.481800165759E-05
0.354931	-0.0247495498455	0.000834242067317	0.000124526552358	6.507530928346E-05
0.355929	-0.0248019993578	0.000837864264311	0.000125395963513	6.532714777041E-05
0.356905	-0.0248516835932	0.000841387264853	0.000126228696491	6.557371399296E-05
0.357859	-0.0248987564917	0.000844816750484	0.000127026782002	6.581520085902E-05
0.358793	-0.0249433607726	0.000848155757688	0.000127792179122	6.605179026664E-05
0.359706	-0.0249856290755	0.000851408176565	0.000128526742583	6.628365496519E-05
0.360599	-0.0250256301604	0.00085457322935	0.000129231265285	6.651063806551E-05
0.361477	-0.0250636935602	0.000857671930515	0.000129911249192	6.673416276692E-05
0.362345	-0.0251000449503	0.000860719093486	0.000130570455957	6.695522025568E-05
0.363205	-0.0251348760333	0.00086372811005	0.000131212333518	6.717473559403E-05
0.364062	-0.0251683511034	0.000866711547659	0.00013184627041	6.739360286012E-05
0.364917	-0.0252005266815	0.000869673582099	0.000132480185021	6.761206602324E-05
0.365771	-0.0252314525448	0.00087261798397	0.000133114223725	6.783039425029E-05
0.366624	-0.0252611718629	0.000875548497275	0.000133748472431	6.80488553173E-05
0.36748	-0.025289758943	0.000878472781089	0.000134383728386	6.826803462223E-05
0.368339	-0.025317203398	0.000881390500152	0.000135019286815	6.848791348046E-05
0.3692	-0.0253435301248	0.000884305321282	0.000135655199377	6.870876976617E-05
0.370067	-0.0253687581606	0.000887220938432	0.000136291540771	6.893088667859E-05
0.370938	-0.0253928680912	0.000890137050786	0.000136938163952	6.915424126586E-05
0.371815	-0.0254158713604	0.000893057424477	0.000137608712282	6.937914840277E-05
0.372699	-0.0254377432406	0.000895981764853	0.000138304439311	6.960560194003E-05
0.37359	-0.0254584866952	0.000898913953211	0.000139008723083	6.983392039439E-05
0.374487	-0.0254780436207	0.000901849508556	0.000139719462963	7.006377900876E-05
0.375393	-0.0254964126092	0.000904792829517	0.000140436848064	7.029549414428E-05
0.376307	-0.0255135849288	0.000907746768774	0.000141161336565	7.052940559937E-05
0.37723	-0.0255294990015	0.000910707442529	0.000141891457601	7.076516408544E-05
0.378163	-0.0255441614663	0.000913683494924	0.000142628826503	7.100348878764E-05
0.379107	-0.0255575058186	0.000916670245731	0.000143371988492	7.124403069891E-05
0.380062	-0.0255695059843	0.000919672119783	0.000144121611755	7.148717876726E-05
0.381031	-0.0255801250189	0.000922693717644	0.00014487843995	7.173334676791E-05
0.382013	-0.0255893007532	0.000925735071446	0.000145640244461	7.198958083254E-05
0.383012	-0.0255969789432	0.000928802165952	0.000146405271791	7.225114288589E-05
0.384028	-0.0256030925428	0.000931900948898	0.000147175783078	7.251781997342E-05
0.385065	-0.0256075592312	0.000935030562414	0.000147954217981	7.279024889506E-05
0.386124	-0.0256102750625	0.000938197754929	0.000148741880388	7.30686447592E-05
0.387208	-0.0256111269153	0.00094141203315	0.000149543180017	7.335425746868E-05
0.38832	-0.0256099711577	0.000944677784954	0.000150359301783	7.364742483329E-05
0.389466	-0.025606633688	0.000948009650781	0.00015117949447	7.394966415442E-05
0.390651	-0.0256008859743	0.000951423923729	0.000152023213184	7.42627435617E-05
0.391885	-0.0255924299247	0.000954939470901	0.000152896170078	7.458878969224E-05
0.393176	-0.0255808761001	0.000958578666552	0.000153805403905	7.493030122951E-05
0.394543	-0.0255656342371	0.000962385447348	0.000154763644749	7.529206655921E-05
0.396005	-0.0255458938145	0.000966406530132	0.00015590614531	7.567943063869E-05
0.397599	-0.0255203431282	0.000970726176496	0.000157500954663	7.610188736873E-05
0.399296	-0.0254885135594	0.000975254510276	0.000159174967916	7.655146763064E-05
0.400997	-0.0254518412314	0.000979723255159	0.000160842888706	7.700086583684E-05
0.402754	-0.0254090356165	0.000984260142283	0.000162558753339	7.746350586491E-05
0.404542	-0.0253603082699	0.000988800997357	0.00016430261227	7.793261451594E-05
0.406165	-0.0253116366208	0.000992856330147	0.0001658781873	7.835488047681E-05
0.407687	-0.0252621595206	0.000996606642709	0.000167351520847	7.874857640511E-05
0.409168	-0.0252105201589	0.001000202330557	0.000168779579001	7.912931202458E-05
0.410627	-0.0251562341586	0.001003695390501	0.000170181192999	7.950235969378E-05
0.412079	-0.0250988573406	0.001007122879475	0.000171569741462	7.987153953737E-05
0.41353	-0.0250381393781	0.001010502698547	0.000172951112895	8.023862855788E-05
0.414989	-0.024973762244	0.001013851767207	0.000174330912562	8.060535963139E-05
0.416463	-0.0249053304998	0.001017185903377	0.000175714887694	8.097347286506E-05
0.417951	-0.0248327370462	0.001020503602426	0.000177101286495	8.134285010364E-05
0.419451	-0.024756075823	0.001023794420007	0.000178484611562	8.171237699406E-05
0.420971	-0.0246748379019	0.001027072960348	0.000179872762253	8.208388785613E-05
0.422495	-0.0245897929471	0.001030267516594	0.000181248736874	8.24532288255E-05
0.424015	-0.0245014098402	0.001033194886491	0.000182601857542	8.281827475631E-05
0.425539	-0.0244092424488	0.001036112970086	0.000183937829819	8.31808778643E-05
0.427079	-0.0243124900245	0.001039035771409	0.000185266382903	8.354382593279E-05
0.42864	-0.0242107452988	0.001041962851319	0.000186584140251	8.390794643764E-05
0.430227	-0.0241035325171	0.001044895189672	0.000188088384959	8.427410144218E-05
0.431827	-0.023991588627	0.001046810918413	0.000189539956474	8.463897887268E-05
0.433446	-0.0238744864636	0.001048079150366	0.000190986261804	8.500344557216E-05
0.435093	-0.0237513596904	0.001049655261865	0.000192441320647	8.536944175175E-05
0.436769	-0.02362194142	0.001051543839658	0.000193903639463	8.573678040857E-05
0.438486	-0.0234851077544	0.001054264018325	0.000195380142051	8.610753510174E-05
0.440252	-0.0233399380791	0.001059609496688	0.000196872692309	8.648273894085E-05
0.442081	-0.0231848119887	0.001064422446905	0.000198388303343	8.686482366072E-05
0.443986	-0.0230182509862	0.001068949608855	0.000199928506992	8.725522142594E-05
0.445986	-0.0228377675351	0.001072849463612	0.000201500362962	8.765699859747E-05
0.448108	-0.022640073016	0.001076521195429	0.00020311134586	8.807390501531E-05
0.450398	-0.022419762158	0.001080080456633	0.000204775717453	8.851253823527E-05
0.452809	-0.0221800698707	0.001083100637727	0.00020642321222	8.896068517794E-05
0.45533	-0.0219209252143	0.001086002064586	0.000207458669161	8.941388363759E-05
0.457762	-0.0216630614886	0.001088522085616	0.000208345987247	8.983343474833E-05
0.460021	-0.0214166213116	0.001090664163046	0.000209095656985	9.020689139394E-05
0.462173	-0.0211759617118	0.001092523788562	0.000209793056341	9.054764659933E-05
0.464265	-0.020936300758	0.001094164315878	0.0002104541444	9.086425885574E-05
0.466326	-0.0206950283687	0.001095616389601	0.000211085052471	9.116317719826E-05
0.468379	-0.0204495245293	0.001096902251704	0.000211688227748	9.145094088359E-05
0.470447	-0.0201969710642	0.001098034454078	0.000212263790105	9.173097908599E-05
0.472532	-0.0199372842924	0.001099007263953	0.000212797390462	9.200318035729E-05
0.47465	-0.0196682200546	0.001099823905873	0.000213270826976	9.22696415202E-05
0.476812	-0.0193882985971	0.001100481694304	0.000213658850409	9.253123690556E-05
0.479039	-0.0190945178598	0.001100978174044	0.000213939238869	9.27899973262E-05
0.481344	-0.0187845426717	0.001101231312346	0.000214150197181	9.304687633138E-05
0.483779	-0.0184508251021	0.001100790286183	0.000210987046644	9.330664502771E-05
0.486453	-0.0180769662872	0.001098409503599	0.000207621621615	9.357975328994E-05
0.489128	-0.0176956760453	0.001094186069651	0.000204819239678	9.383887462633E-05
0.491789	-0.0173092632084	0.00109676003263	0.000202516763375	9.408324448756E-05
0.494436	-0.0169180612775	0.0010985992417	0.000200738170408	9.431369077006E-05
0.497097	-0.016518157284	0.001097977953181	0.000199467335516	9.453340194998E-05
0.499772	-0.0161096166062	0.0010961961561	0.000198767388761	9.47428134852E-05
0.50249	-0.0156879469316	0.001093912067971	0.000198601587989	9.494469848326E-05
0.505224	-0.0152576161175	0.001091200435598	0.000204463802664	9.513700682806E-05
0.508004	-0.0148137558247	0.001088018514321	0.000209489367093	9.532227114306E-05
0.510815	-0.0143586407626	0.001084362101769	0.000213913953616	9.549949731502E-05
0.513548	-0.0139105411539	0.001080390772478	0.000217553320607	9.566186538956E-05
0.51625	-0.0134621592194	0.001076035116565	0.000220629035302	9.581348546783E-05
0.518923	-0.0130138184453	0.001071261203356	0.000223214033444	9.595502747084E-05
0.521596	-0.0125608171574	0.001065617222287	0.000225283804142	9.608868457622E-05
0.524283	-0.0121008048415	0.00105767818224	0.000227006840436	9.621721216346E-05
0.527002	-0.0116312222473	0.001051526483323	0.000228579917225	9.634268897418E-05
0.529834	-0.0111376072373	0.001048534015447	0.000230156567004	9.646992266044E-05
0.532649	-0.0106428277874	0.001041920837796	0.000231581453905	9.65937109707E-05
0.535482	-0.0101412079194	0.001034295163754	0.000232775842516	9.671669621847E-05
0.53828	-0.0096421384719	0.001026240767272	0.000233602141541	9.683752062806E-05
0.541045	-0.009145915276	0.001017773411824	0.000234449330087	9.695711766877E-05
0.543777	-0.00865281397866	0.001008906422531	0.000235308041591	9.707638564072E-05
0.546492	-0.00816016586794	0.000999592111839	0.00023615233511	9.719681675424E-05
0.549224	-0.00766231637323	0.000989687821306	0.000236951412168	9.732029559384E-05
0.552042	-0.007146841885	0.000978809239829	0.000237187894056	9.745100847436E-05
0.554951	-0.0066127346266	0.000966143055261	0.000237444790058	9.759030675349E-05
0.557822	-0.00608394624412	0.000952479217405	0.000237984043309	9.773239880362E-05
0.560693	-0.00555391755628	0.000943725746145	0.000238645755071	9.787977215003E-05
0.563527	-0.00502981547464	0.00093097279277	0.000239381870621	9.803078027515E-05
0.566343	-0.00450849294588	0.000917469320262	0.000237953494541	9.818680670604E-05
0.569141	-0.00399023057407	0.00090344126949	0.000235179437772	9.834809597908E-05
0.571957	-0.00346856810664	0.000888700585823	0.000233909162492	9.851732416077E-05
0.57483	-0.00293669438743	0.000873015797716	0.00023340923636	9.869802574913E-05
0.577783	-0.00239068206833	0.000856210000304	0.000235137953998	9.889282192965E-05
0.580756	-0.00184181536551	0.000838523880102	0.000241797785392	9.909856524448E-05
0.583729	-0.00129428242886	0.000819959840274	0.000246676469411	9.931428357612E-05
0.586746	-0.00074052350111	0.000798752335595	0.00025106082661	9.954373206922E-05
0.58974	-0.000192821290768	0.00078049156158	0.000254447307532	9.978186142101E-05
0.592713	0.000348561094829	0.000760502879186	0.000257154370896	0.000100028625086
0.595708	0.000891212529365	0.00073933920965	0.000259667545491	0.00010028808375
0.598725	0.00143481434109	0.000717268744702	0.000261967723964	0.000100560766591
