t [s]		x3 [m]		WG1 [m]		WG2 [m]		WG3 [m]
0	0.15	0	0	0
0.00119904	0.149996483786	2.360253814615E-08	4.58327198416E-09	2.414465516409E-09
0.00263616	0.149977961194	3.066358011949E-08	7.970031301596E-09	9.674893330924E-09
0.00435873	0.149929183077	3.930632042071E-08	1.25741350665E-08	2.860629777501E-08
0.00642437	0.149832539583	3.875718901369E-08	1.397600080111E-08	6.582964529045E-08
0.00879568	0.149670380817	3.705415929645E-08	1.641597568991E-08	1.284095261234E-07
0.0110639	0.149464145583	3.309958218622E-08	1.965801521564E-08	2.081640575469E-07
0.0128554	0.149265995926	2.706057466995E-08	2.285339251173E-08	2.849142664019E-07
0.0143906	0.149071501859	1.893110468387E-08	2.607350557682E-08	3.603515472683E-07
0.0157788	0.148876045783	8.525959049877E-09	2.937752219268E-08	4.362597851859E-07
0.0170705	0.148677496194	-4.365888761626E-09	3.280954752327E-08	5.134625493675E-07
0.0182915	0.148475023545	-1.995412968192E-08	3.637908685405E-08	5.922840671246E-07
0.0194602	0.148267793544	-3.849560314961E-08	4.010633514184E-08	6.730498203211E-07
0.0205885	0.148055266368	-6.024042575881E-08	4.40064313878E-08	7.559763908205E-07
0.0216902	0.147835981584	-8.550879493363E-08	4.813675813509E-08	8.416453196602E-07
0.0227411	0.147616015688	-1.124437019051E-07	5.238671896279E-08	9.276881556275E-07
0.0236082	0.147426581106	-1.36670294193E-07	5.60877659872E-08	1.001865598926E-06
0.024395	0.147248527628	-1.600595318507E-07	5.962486149258E-08	1.071656647422E-06
0.0251408	0.147074322005	-1.831650040529E-07	6.314893097326E-08	1.14000687601E-06
0.0258592	0.146901568409	-2.059714949709E-07	6.67035444657E-08	1.207853642438E-06
0.0265575	0.146728982656	-2.283403148784E-07	7.030956394871E-08	1.27570009667E-06
0.0272383	0.146556326398	-2.500013969176E-07	7.39634540281E-08	1.343639554729E-06
0.0279068	0.146382520181	-2.707685000658E-07	7.76813307013E-08	1.412097224041E-06
0.0285668	0.146206846891	-2.903810512045E-07	8.146847196855E-08	1.481357108979E-06
0.0292205	0.146028810727	-3.085249551393E-07	8.532011985807E-08	1.551616418904E-06
0.0298699	0.145848013077	-3.248443163351E-07	8.922178906801E-08	1.623034575182E-06
0.0305162	0.145664153083	-3.38926527732E-07	9.31473556065E-08	1.695733118368E-06
0.0311604	0.145477032497	-3.503133969573E-07	9.705048675812E-08	1.769793615658E-06
0.0318037	0.14528630828	-3.585143506513E-07	1.008526258062E-07	1.845354881791E-06
0.0324461	0.145092000118	-3.629804730121E-07	1.044471931166E-07	1.922412220967E-06
0.0330886	0.144893861943	-3.631254608116E-07	1.078882281291E-07	2.001066756296E-06
0.0337311	0.14469189812	-3.583172660804E-07	1.117946029083E-07	2.081320614966E-06
0.034374	0.144485975638	-3.478787491407E-07	1.17232784369E-07	2.163230689689E-06
0.0350177	0.144275952285	-3.310796552469E-07	1.238903837297E-07	2.246858398891E-06
0.0356632	0.144061531232	-3.071055862947E-07	1.311322481712E-07	2.332327731391E-06
0.0363117	0.143842242299	-2.750330403423E-07	1.386501997658E-07	2.419833432743E-06
0.0369655	0.143617266996	-2.33685854667E-07	1.462797616369E-07	2.509713556087E-06
0.0376283	0.143385218254	-1.815881880418E-07	1.540398448796E-07	2.60253497375E-06
0.0382888	0.143150008279	-1.185782014801E-07	1.618679643656E-07	2.696742377406E-06
0.0388184	0.142958593655	-5.98780127703E-08	1.682528010249E-07	2.773489940822E-06
0.0392987	0.142782810048	3.236308998567E-10	1.741591364457E-07	2.844041467664E-06
0.0397624	0.142611193407	6.514767969534E-08	1.799870581465E-07	2.912989528703E-06
0.0402201	0.142439918366	1.359174697235E-07	1.858754532513E-07	2.981868703955E-06
0.0406754	0.142267699411	2.132669854049E-07	1.918763570252E-07	3.051196050041E-06
0.0411311	0.142093483998	2.978704829459E-07	1.980354507047E-07	3.121396865424E-06
0.0415897	0.14191633714	3.910541623853E-07	2.043958602371E-07	3.192850654976E-06
0.0420525	0.141735687746	4.977500527303E-07	2.109870718137E-07	3.265790990525E-06
0.0425204	0.141551092913	6.348763315067E-07	2.178345890336E-07	3.340400559715E-06
0.0429944	0.141362160261	7.80114636445E-07	2.249620290051E-07	3.416842146109E-06
0.0434746	0.141168751197	9.303285328777E-07	2.323828711681E-07	3.495176438051E-06
0.0439612	0.140970720507	1.085208614082E-06	2.401115803963E-07	3.575466762662E-06
0.044454	0.140768021222	1.24427436754E-06	2.481601066862E-07	3.657736978191E-06
0.0449535	0.140560394242	1.407131357212E-06	2.56548856381E-07	3.742097241854E-06
0.0454598	0.140347673105	1.573249127418E-06	2.652963222438E-07	3.828620759982E-06
0.0459728	0.140129920314	1.741890319096E-06	2.744153237977E-07	3.91728893101E-06
0.046493	0.139906735046	1.912651793834E-06	2.839441122227E-07	4.008273682743E-06
0.0470215	0.139677553631	2.085181153078E-06	2.939285321801E-07	4.101814121249E-06
0.0475602	0.139441483193	2.259323473197E-06	3.044391738705E-07	4.198287206769E-06
0.048112	0.139197087435	2.435230450626E-06	3.155860830439E-07	4.298296365945E-06
0.0486674	0.13894851011	2.609099829076E-06	3.272021564804E-07	4.400157589846E-06
0.0491822	0.13871577391	2.767134065884E-06	3.382904685267E-07	4.495652426773E-06
0.0496208	0.138515758437	2.89930464259E-06	3.479418517749E-07	4.577815644335E-06
0.0500276	0.138328798974	3.019348690625E-06	3.571088993404E-07	4.654701233342E-06
0.0504272	0.138143825088	3.134435358376E-06	3.663486540795E-07	4.730855034829E-06
0.0508293	0.137956438783	3.247049554123E-06	3.758926343522E-07	4.8080889683E-06
0.0512359	0.13776554216	3.357458273623E-06	3.858050914296E-07	4.886859013453E-06
0.051649	0.137570271649	3.465681296166E-06	3.961425734111E-07	4.967526147759E-06
0.0520694	0.137370109008	3.571491503873E-06	4.069434313969E-07	5.050309901833E-06
0.0524979	0.137164570497	3.674520448804E-06	4.18245284628E-07	5.135416602631E-06
0.0529347	0.136953508689	3.774135479251E-06	4.300568710036E-07	5.222913777914E-06
0.05338	0.136736774819	3.869612873686E-06	4.424121917701E-07	5.312870661633E-06
0.0538349	0.136513682956	3.960228099231E-06	4.553708405908E-07	5.405579697193E-06
0.0543001	0.136283798831	4.045452393964E-06	4.689720336515E-07	5.501229367599E-06
0.0547748	0.136047360919	4.126371775826E-06	4.832115165776E-07	5.599729385519E-06
0.0552486	0.135809563947	4.162798121321E-06	4.977216532254E-07	5.698919669506E-06
0.0557013	0.135580659931	4.175777199578E-06	5.117462547055E-07	5.794514638335E-06
0.0561514	0.135351424265	4.190276728711E-06	5.259792450474E-07	5.890365903038E-06
0.0565912	0.135125852539	4.206620635827E-06	5.400960114699E-07	5.984801006331E-06
0.0570234	0.13490270797	4.225327627339E-06	5.541763998806E-07	6.078335498039E-06
0.0574328	0.134689929284	4.245801107583E-06	5.675873024913E-07	6.167630868692E-06
0.0578298	0.134482353216	4.268589978373E-06	5.807384875212E-07	6.254845620113E-06
0.0582294	0.13427222071	4.294855506792E-06	5.941935654619E-07	6.343242072937E-06
0.0586359	0.134057193092	4.32534657957E-06	6.080552550358E-07	6.433811947204E-06
0.0590584	0.133832321122	4.361395298691E-06	6.226434896561E-07	6.528651939064E-06
0.0594807	0.133606173021	4.40194906437E-06	6.370992156057E-07	6.624150569401E-06
0.0599065	0.13337678574	4.447671421826E-06	6.514283161785E-07	6.721139733212E-06
0.0603387	0.13314248261	4.499315036099E-06	6.657741145055E-07	6.820334836011E-06
0.0607807	0.132901395042	4.557825775464E-06	6.803871261951E-07	6.922536738507E-06
0.0612314	0.132654013079	4.623609926035E-06	6.950570385911E-07	7.027548524441E-06
0.0616902	0.13240055747	4.697405010745E-06	7.095731802131E-07	7.135288222493E-06
0.062157	0.132141045763	4.779598996141E-06	7.251146607601E-07	7.245761526775E-06
0.062629	0.131876993311	4.870104783006E-06	7.427761166134E-07	7.358333321772E-06
0.0630958	0.131614201474	4.966935450046E-06	7.629407163812E-07	7.470532123133E-06
0.0635448	0.131359965853	5.066842234225E-06	7.869613680711E-07	7.57923094552E-06
0.063995	0.131103514606	5.173845817108E-06	8.145028536077E-07	7.689039375869E-06
0.0644388	0.130849267039	5.285598934979E-06	8.442612582371E-07	7.798065583042E-06
0.0648772	0.130596715079	5.40192339038E-06	8.751489026793E-07	7.906520446799E-06
0.0653212	0.130339511518	5.533741276764E-06	9.07572829334E-07	8.017137347771E-06
0.065793	0.130064656872	5.70221789431E-06	9.422702156314E-07	8.135539134813E-06
0.0662637	0.129788910954	5.890426588717E-06	9.767051278864E-07	8.254512329664E-06
0.0667156	0.129522634652	6.076525881582E-06	1.009535486762E-06	8.36957155359E-06
0.0671481	0.129266494785	6.258613983512E-06	1.040795232221E-06	8.480411205714E-06
0.0675735	0.129013291666	6.441774433874E-06	1.071528787033E-06	8.590140795572E-06
0.0680014	0.128757313378	6.630204324232E-06	1.10257331043E-06	8.70123927843E-06
0.0684361	0.128495977252	6.825975020774E-06	1.134214501874E-06	8.814835591231E-06
0.0688808	0.128227297152	7.03082996667E-06	1.166779378892E-06	8.931805203449E-06
0.0693397	0.127948566931	7.247120620946E-06	1.200682561375E-06	9.053340589205E-06
0.0698241	0.127652713173	7.480901414336E-06	1.236898874435E-06	9.182555910314E-06
0.0703184	0.12734919032	7.725190871E-06	1.274262982687E-06	9.315337691884E-06
0.0708013	0.127050959154	7.969488390991E-06	1.311149391725E-06	9.446003818692E-06
0.0712985	0.126742267314	8.227038534425E-06	1.349734378486E-06	9.581484869514E-06
0.0717959	0.126431715057	8.490816422402E-06	1.388977566741E-06	9.718011507509E-06
0.0722794	0.126128288501	8.753114877802E-06	1.427672820409E-06	9.851615995426E-06
0.0727539	0.125828922446	9.015926208722E-06	1.466240191483E-06	9.983641303002E-06
0.0732215	0.12553246814	9.279623466529E-06	1.504819606257E-06	1.011458971201E-05
0.0736908	0.125233514214	9.548144179305E-06	1.544085396432E-06	1.024686059736E-05
0.074167	0.12492863284	9.823174386803E-06	1.584754093731E-06	1.038198422032E-05
0.0746543	0.124615168307	1.011790033401E-05	1.627278056304E-06	1.052115637323E-05
0.0751328	0.124305885953	1.042030503617E-05	1.669669070559E-06	1.065869528682E-05
0.0756213	0.123988555413	1.073467699397E-05	1.713942455073E-06	1.080006589227E-05
0.0761254	0.123659598435	1.106558930264E-05	1.760806522366E-06	1.094689029291E-05
0.0766415	0.123321071773	1.141212882505E-05	1.809782454121E-06	1.109827181578E-05
0.0771611	0.122978561902	1.1769078331E-05	1.859691360462E-06	1.125171804084E-05
0.0776816	0.12263377215	1.213477868633E-05	1.910233729863E-06	1.140646447562E-05
0.0782053	0.122285112926	1.251112889999E-05	1.961725334176E-06	1.156323319229E-05
0.078725	0.12193750448	1.289287635853E-05	2.012645995197E-06	1.171980208969E-05
0.0792351	0.121594600012	1.327577624632E-05	2.061362100569E-06	1.187450790363E-05
0.0797435	0.121251206534	1.366559715921E-05	2.109583329801E-06	1.202969880243E-05
0.0802588	0.120901542939	1.406905166501E-05	2.15881012311E-06	1.218800702629E-05
0.0807799	0.12054622637	1.448526037962E-05	2.208736060272E-06	1.234916651915E-05
0.0812928	0.120194811937	1.490339713239E-05	2.255380574745E-06	1.250882061754E-05
0.0817916	0.119851569193	1.53162307921E-05	2.299031379049E-06	1.266500374575E-05
0.0822879	0.119508481117	1.573088379425E-05	2.344457298076E-06	1.282137718794E-05
0.0827872	0.119161828349	1.615181648784E-05	2.393816492141E-06	1.297965182667E-05
0.083289	0.118811957854	1.659654181374E-05	2.44702610086E-06	1.313967359051E-05
0.0837904	0.118460776319	1.70556996637E-05	2.504128595593E-06	1.330056962656E-05
0.0843137	0.118092755059	1.754294831535E-05	2.575083510425E-06	1.346952128278E-05
0.0848352	0.117724369042	1.803782901355E-05	2.65503780339E-06	1.363893206863E-05
0.085354	0.117356258187	1.854014337921E-05	2.738095131516E-06	1.3808503466E-05
0.0858707	0.116988019432	1.905061698038E-05	2.822011881953E-06	1.397842218376E-05
0.086386	0.116619254445	1.956990894003E-05	2.907043042732E-06	1.414887324369E-05
0.0869004	0.116249564395	2.009870950115E-05	2.993502667525E-06	1.43200430216E-05
0.0874032	0.11588673452	2.062548894965E-05	3.076617998587E-06	1.448828826778E-05
0.0878955	0.115530122503	2.1150764419E-05	3.157204783388E-06	1.465389656685E-05
0.0883814	0.115176708467	2.167854263302E-05	3.23641097566E-06	1.481827104399E-05
0.0888782	0.114814008554	2.222729254386E-05	3.317414053683E-06	1.49872716344E-05
0.0894009	0.114430859182	2.281466331766E-05	3.403264376534E-06	1.516617858899E-05
0.0899228	0.114046823465	2.340777027765E-05	3.489661478895E-06	1.534579615603E-05
0.0904422	0.113663016034	2.400055083607E-05	3.57638850712E-06	1.552559671669E-05
0.0909596	0.113279232642	2.460111324387E-05	3.663293133727E-06	1.570567750697E-05
0.0914752	0.112895267571	2.523306686575E-05	3.750966849569E-06	1.588612793268E-05
0.0919894	0.112510912823	2.587416565758E-05	3.8396030142E-06	1.606704804757E-05
0.0925027	0.112125745026	2.652378740597E-05	3.92906204727E-06	1.624864074712E-05
0.093016	0.111739127354	2.718465601337E-05	4.01919756543E-06	1.643121183781E-05
0.0935304	0.111350191996	2.785884009837E-05	4.110764063814E-06	1.661517698714E-05
0.0940466	0.110958487377	2.854736573932E-05	4.204085293225E-06	1.680075591892E-05
0.0945652	0.11056354346	2.925129982367E-05	4.299359428472E-06	1.698817768814E-05
0.0950853	0.110166015796	2.996957919565E-05	4.394361333482E-06	1.717712844096E-05
0.0956086	0.10976449782	3.070494140767E-05	4.488881537146E-06	1.736828954346E-05
0.096136	0.109358459273	3.145819699579E-05	4.584940267893E-06	1.756192122038E-05
0.0966636	0.108950709029	3.222293416316E-05	4.682428183855E-06	1.775666994686E-05
0.0971919	0.108541016437	3.299735392037E-05	4.781219216543E-06	1.795265023219E-05
0.0977153	0.108133689811	3.376827745827E-05	4.879523334722E-06	1.814777203935E-05
0.0982291	0.107732407746	3.452926101444E-05	4.968472739009E-06	1.834024160852E-05
0.09874	0.107332054108	3.531896919817E-05	5.054347273603E-06	1.853254373918E-05
0.0992504	0.106930821946	3.61304183345E-05	5.144286269854E-06	1.872555972504E-05
0.0997578	0.106530537113	3.694894030248E-05	5.240178605703E-06	1.891839344825E-05
0.100281	0.106116800663	3.780547152799E-05	5.344084013537E-06	1.911810808997E-05
0.100807	0.105699008877	3.868195457146E-05	5.452972362097E-06	1.932010475958E-05
0.101331	0.105281295217	3.956994670151E-05	5.571258592685E-06	1.95223495405E-05
0.101846	0.104869904343	4.045578398149E-05	5.70803341704E-06	1.972175560283E-05
0.102353	0.104463272339	4.134237486841E-05	5.851222353304E-06	1.991908589893E-05
0.102854	0.104060617473	4.223076512488E-05	5.993571441376E-06	2.011471505625E-05
0.103356	0.103655148017	4.313553712709E-05	6.13425146323E-06	2.031200512365E-05
0.103874	0.103235726776	4.408087802155E-05	6.276511500314E-06	2.051650018364E-05
0.104398	0.102811058757	4.504341550682E-05	6.419464979146E-06	2.07238836345E-05
0.104918	0.102387050465	4.600474650829E-05	6.561870894206E-06	2.09312089825E-05
0.105437	0.101963224585	4.696747754185E-05	6.699951824896E-06	2.113871176013E-05
0.105955	0.101539105825	4.797046047056E-05	6.836405536781E-06	2.134662648023E-05
0.106472	0.10111446299	4.899556070148E-05	6.97289066709E-06	2.155506396484E-05
0.106988	0.100689308669	5.003275855664E-05	7.109545638428E-06	2.176402475529E-05
0.107499	0.100266342705	5.107621745504E-05	7.245994604776E-06	2.197215496347E-05
0.108007	0.0998457901952	5.212592276216E-05	7.382518009802E-06	2.217934397297E-05
0.108514	0.0994240576864	5.31911128312E-05	7.520946379014E-06	2.238741349592E-05
0.109021	0.0990016346895	5.427049659845E-05	7.661476191689E-06	2.259612077582E-05
0.109527	0.0985785317564	5.536385696736E-05	7.800963556015E-06	2.280546682121E-05
0.110044	0.0981456509837	5.649499755389E-05	7.941944761836E-06	2.302008889599E-05
0.110566	0.0977067296896	5.765309697781E-05	8.086697701692E-06	2.323810213545E-05
0.111089	0.0972658157619	5.882353720921E-05	8.235364302944E-06	2.345744981191E-05
0.111611	0.0968249855014	5.999238810395E-05	8.38718598084E-06	2.367707591189E-05
0.112131	0.0963839870341	6.116039685677E-05	8.541847051458E-06	2.38971162414E-05
0.112651	0.0959425701256	6.236770636603E-05	8.698925446637E-06	2.411770601807E-05
0.113169	0.0955010022364	6.360639912284E-05	8.846435270993E-06	2.433870946517E-05
0.113683	0.0950616021578	6.485180182825E-05	8.98576717967E-06	2.455893447584E-05
0.11419	0.0946278579831	6.609315764194E-05	9.127494665417E-06	2.477657846756E-05
0.114687	0.0942010684745	6.732732919046E-05	9.275830235911E-06	2.499096317443E-05
0.115179	0.0937777356323	6.856408689959E-05	9.432376495422E-06	2.520389121097E-05
0.115691	0.0933361575956	6.986819398946E-05	9.602835393085E-06	2.54266328108E-05
0.116221	0.0928772334158	7.123856628244E-05	9.784744381847E-06	2.565876513438E-05
0.11675	0.0924187625946	7.262120053797E-05	9.972412875925E-06	2.589100698769E-05
0.117277	0.0919602117601	7.40153708465E-05	1.018867494196E-05	2.612364407772E-05
0.117803	0.0915013230672	7.541589392757E-05	1.042193926359E-05	2.635682121355E-05
0.118329	0.0910421132318	7.681359458456E-05	1.065459402882E-05	2.659054132392E-05
0.118851	0.0905847772234	7.819769229611E-05	1.087905281594E-05	2.682365289353E-05
0.119369	0.0901293079778	7.959906040078E-05	1.109303400959E-05	2.705616656939E-05
0.119886	0.0896748975119	8.098470454598E-05	1.129682858858E-05	2.728851204781E-05
0.1204	0.0892210186188	8.232607298497E-05	1.149222874108E-05	2.752097506864E-05
0.120914	0.088766087347	8.361933860002E-05	1.168212018943E-05	2.775439979175E-05
0.12143	0.0883093083298	8.486254868068E-05	1.186717926327E-05	2.798921432134E-05
0.121957	0.0878404755845	8.607764179347E-05	1.204998463544E-05	2.823088315029E-05
0.122487	0.0873691387228	8.723591249149E-05	1.223761010882E-05	2.847429926245E-05
0.123015	0.0868978548269	8.833014247944E-05	1.242443760008E-05	2.871809357829E-05
0.123543	0.0864254945851	8.936171694085E-05	1.261109719497E-05	2.896287803456E-05
0.124071	0.0859520607496	9.032708905465E-05	1.280200273168E-05	2.920865601164E-05
0.124597	0.0854792725281	9.121365941667E-05	1.299939957322E-05	2.945449857661E-05
0.125122	0.0850057204534	9.204481251146E-05	1.320291304374E-05	2.97011709498E-05
0.125647	0.0845319861312	9.289707627458E-05	1.341213376804E-05	2.994835511672E-05
0.126173	0.0840566567132	9.381641378736E-05	1.362752955325E-05	3.019681826189E-05
0.126698	0.0835800224974	9.485525183406E-05	1.384833241103E-05	3.044639592531E-05
0.127227	0.0831000619264	9.608742080891E-05	1.405056525527E-05	3.069818899659E-05
0.127759	0.082615560148	9.758685681893E-05	1.425120826992E-05	3.095285681498E-05
0.128284	0.0821364649234	9.932974366977E-05	1.446154420215E-05	3.120491536235E-05
0.128809	0.0816569455806	0.000101338188794	1.468838195073E-05	3.145757347278E-05
0.129335	0.0811746867173	0.000103622428563	1.493083837145E-05	3.171209643194E-05
0.129863	0.0806896752193	0.000106178485769	1.518929942268E-05	3.196847670894E-05
0.130395	0.080200707836	0.000108999191615	1.546254673546E-05	3.222736312569E-05
0.13093	0.0797074363921	0.000112064242921	1.574769936408E-05	3.248892606544E-05
0.131469	0.0792091863562	0.000115361663678	1.605074802935E-05	3.275352680987E-05
0.132012	0.078707450978	0.000118975125321	1.639587010072E-05	3.302054690701E-05
0.132553	0.0782056676814	0.000122813899829	1.674436576948E-05	3.328824422599E-05
0.133091	0.0777054065353	0.000126657767658	1.707873839862E-05	3.355580617237E-05
0.133625	0.0772088165488	0.000130378078768	1.739214805863E-05	3.382207923019E-05
0.134155	0.0767140349713	0.000133849565161	1.768447754413E-05	3.408815031092E-05
0.134683	0.076220754965	0.000137068910396	1.795584061703E-05	3.435423293574E-05
0.135212	0.0757259695149	0.000140053922714	1.820957370091E-05	3.462206326921E-05
0.135744	0.0752272365395	0.000142815931387	1.843992297523E-05	3.489306680127E-05
0.136279	0.0747241936885	0.000145348743105	1.86530878179E-05	3.516749184085E-05
0.136819	0.0742158277003	0.00014765382217	1.885772247467E-05	3.544595926019E-05
0.137362	0.0737036596225	0.000149738796718	1.906909564608E-05	3.572763553894E-05
0.137909	0.0731873181193	0.000151580040281	1.930266751415E-05	3.601276871246E-05
0.138458	0.072668076357	0.000153164401477	1.955852981039E-05	3.630066302351E-05
0.139009	0.0721459189263	0.000154625143885	1.983568395536E-05	3.659136562995E-05
0.139557	0.071625513757	0.000156039308717	2.012650390615E-05	3.688218740949E-05
0.140101	0.0711081714004	0.000157555698683	2.04068065055E-05	3.717237341094E-05
0.140641	0.0705932162861	0.000159177502991	2.066349870633E-05	3.746231989776E-05
